Iteration,Gesture,AVG POT VALUE 1,AVG POT VALUE 2,STD DEV 1,STD DEV 2,MAD 1,MAD 2,DELTA AVG POT VALUE 1,DELTA AVG POT VALUE 2,DELTA STD DEV 1,DELTA STD DEV 2,DELTA MAD 1,DELTA MAD 2
1,flex,44890.0,30295.0,0.0,0.0,0.0,0.0,44890.0,30295.0,0.0,0.0,0.0,0.0
1,flex,44642.0,29991.0,248.0,304.0,248.0,304.0,-248.0,-304.0,248.0,304.0,248.0,304.0
1,flex,44500.666666666664,30161.666666666668,284.5222115917742,346.21509049842973,259.55555555555475,316.44444444444406,-141.33333333333576,170.66666666666788,36.52221159177418,42.21509049842973,11.555555555554747,12.44444444444406
1,flex,44634.0,30347.0,337.70993470728695,439.25391290232125,328.0,356.0,133.33333333333576,185.33333333333212,53.18772311551277,93.03882240389152,68.44444444444525,39.55555555555594
1,flex,44701.2,30343.0,330.6081668686194,392.96208468508473,316.1600000000006,288.0,67.19999999999709,-4.0,-7.10176783866757,-46.291828217236514,-11.839999999999407,-68.0
1,flex,44691.6,30202.2,325.64618837022675,497.2268697485513,308.4800000000003,450.55999999999983,-9.599999999998545,-140.79999999999927,-4.961978498392625,104.26478506346655,-7.680000000000291,162.55999999999983
1,flex,44672.4,30339.8,344.8881557834014,425.6601461260638,331.5199999999997,304.64000000000016,-19.19999999999709,137.59999999999854,19.24196741317462,-71.56672362248747,23.039999999999395,-145.91999999999967
1,flex,44698.0,30397.4,313.53468707624677,461.7989172788199,300.8,359.6800000000003,25.599999999998545,57.60000000000218,-31.353468707154605,36.13877115275608,-30.719999999999686,55.040000000000134
1,flex,44582.8,30061.4,271.98117581875414,570.1570310010759,258.56000000000057,523.5199999999998,-115.19999999999709,-336.0,-41.55351125749263,108.35811372225601,-42.23999999999944,163.83999999999946
1,flex,44451.6,30234.2,203.0424586139794,732.3317281123292,158.71999999999971,661.7599999999999,-131.20000000000437,172.79999999999927,-68.93871720477475,162.1746971112533,-99.84000000000086,138.24000000000012
1,flex,44403.6,30387.8,113.85885999847613,658.096163185945,101.1199999999997,482.55999999999983,-48.0,153.59999999999854,-89.18359861550326,-74.2355649263842,-57.60000000000001,-179.20000000000005
1,flex,44538.0,30295.0,238.39463081202143,685.5024434675809,198.4,582.4,134.40000000000146,-92.79999999999927,124.5357708135453,27.406280281635873,97.2800000000003,99.84000000000015
1,flex,44573.2,30074.2,219.7074418405838,667.750372519598,170.2399999999994,560.6400000000001,35.19999999999709,-220.79999999999927,-18.68718897143762,-17.752070947982816,-28.160000000000593,-21.759999999999877
1,flex,44669.2,30327.0,251.03179081597727,520.7256475343304,227.8399999999994,422.4,96.0,252.79999999999927,31.324348975393463,-147.02472498526765,57.599999999999994,-138.24000000000012
1,flex,44694.8,30055.0,217.83516704115388,311.5689329828115,207.36000000000058,294.4,25.60000000000582,-272.0,-33.196623774823394,-209.15671455151892,-20.479999999998824,-128.0
1,flex,44781.2,30106.2,247.54021895458894,372.41181506491273,239.36000000000058,355.84000000000015,86.39999999999418,51.20000000000073,29.705051913435057,60.842882082101255,32.0,61.44000000000017
1,flex,44714.0,30234.2,232.30325008478104,392.7535614097144,217.6,380.15999999999985,-67.19999999999709,128.0,-15.236968869807896,20.341746344801663,-21.760000000000588,24.31999999999971
1,flex,44800.4,30375.0,225.04897244813594,281.8907589829368,209.9199999999997,217.6,86.40000000000146,140.79999999999927,-7.254277636645099,-110.86280242677759,-7.680000000000291,-162.55999999999986
1,flex,44784.4,30208.6,217.4116832185294,391.0813726069102,197.11999999999972,372.4800000000003,-16.0,-166.40000000000146,-7.6372892296065515,109.19061362397338,-12.799999999999983,154.8800000000003
1,flex,44886.8,30378.2,138.15701212626408,374.05796342280206,112.63999999999942,289.2799999999996,102.40000000000146,169.60000000000218,-79.25467109226531,-17.023409184108118,-84.4800000000003,-83.20000000000073
1,flex,44835.6,30224.6,120.41528142288497,401.92815278356596,103.68000000000029,378.8800000000003,-51.200000000004366,-153.60000000000218,-17.741730703379105,27.870189360763902,-8.959999999999127,89.6000000000007
1,flex,44733.2,30202.2,312.618873390877,385.91522385096806,244.48000000000175,360.95999999999987,-102.40000000000146,-22.399999999997817,192.20359196799205,-16.0129289325979,140.80000000000146,-17.920000000000414
1,flex,44759.0,30279.0,334.3447322750807,448.9133546688578,254.8,422.4,25.80000000000291,76.79999999999927,21.72585888420366,62.99813081788972,10.31999999999826,61.44000000000011
1,flex,44800.8,30400.6,356.4432072571338,330.01915095961465,280.6399999999994,276.4800000000003,41.80000000000291,121.59999999999854,22.09847498205312,-118.89420370924313,25.839999999999407,-145.91999999999967
1,flex,44685.6,30205.4,380.57672025506884,390.68841805195353,348.4800000000003,344.3199999999997,-115.20000000000437,-195.1999999999971,24.133512997935043,60.669267092338885,67.84000000000088,67.8399999999994
1,flex,44762.6,30269.4,427.53273558904,350.9219856319782,410.08000000000027,270.08000000000027,77.0,64.0,46.95601533397115,-39.76643241997533,61.599999999999966,-74.23999999999944
1,flex,44833.0,30183.0,335.27958482450936,351.7089705993404,325.6,268.8,70.40000000000146,-86.40000000000146,-92.25315076453063,0.7869849673621729,-84.48000000000025,-1.280000000000257
1,flex,44663.2,29933.4,377.94253531480314,278.16081679477793,361.43999999999943,254.71999999999971,-169.8000000000029,-249.59999999999854,42.66295049029378,-73.54815380456245,35.83999999999941,-14.080000000000297
1,flex,44624.6,29927.0,342.9679868445454,270.7737062566751,315.1199999999997,249.6,-38.599999999998545,-6.400000000001455,-34.97454847025773,-7.3871105381028315,-46.31999999999971,-5.11999999999972
1,flex,44653.4,29991.0,326.71186081908087,247.04331603987217,292.08000000000027,185.6,28.80000000000291,64.0,-16.25612602546454,-23.73039021680293,-23.039999999999452,-64.0
1,flex,44614.8,30141.4,270.84933080939135,452.1635102481338,245.7600000000006,346.8800000000003,-38.599999999998545,150.40000000000146,-55.86253000968952,205.1201942082616,-46.31999999999968,161.28000000000029
1,flex,44614.8,30221.4,270.84933080939135,456.67038441299667,245.7600000000006,357.1199999999997,0.0,80.0,0.0,4.506874164862893,0.0,10.23999999999944
1,flex,44682.0,30355.8,200.60707863893458,306.8331142495249,192.0,245.75999999999985,67.19999999999709,134.39999999999782,-70.24225217045677,-149.83727016347177,-53.76000000000059,-111.35999999999987
1,flex,44650.0,30247.0,179.02848935308504,410.67359301512477,153.6,332.8,-32.0,-108.79999999999927,-21.578589285849546,103.84047876559987,-38.400000000000006,87.04000000000016
1,flex,44666.0,30317.4,170.232781802001,396.1543133677713,140.8,299.5199999999997,16.0,70.40000000000146,-8.795707551084035,-14.519279647353471,-12.799999999999983,-33.280000000000314
1,flex,44586.0,30189.4,77.06620530458007,261.65748603826813,57.6,200.95999999999913,-80.0,-128.0,-93.16657649742093,-134.49682732950316,-83.20000000000002,-98.56000000000057
1,flex,44630.8,30119.0,62.70693741213163,240.1066429735914,60.16000000000058,198.4,44.80000000000291,-70.40000000000146,-14.359267892448436,-21.55084306467674,2.560000000000578,-2.559999999999121
1,flex,44694.8,30311.0,111.95427637992238,485.6204279064542,87.03999999999942,364.8,64.0,192.0,49.247338967790746,245.51378493286282,26.879999999998844,166.4
1,flex,44678.8,30368.6,113.76888854013067,420.9672671361245,92.16000000000058,318.7199999999997,-16.0,57.599999999998545,1.8146121602082985,-64.65316077032969,5.120000000001156,-46.080000000000325
1,flex,44704.4,30298.2,107.85471709603844,442.8735259642849,84.48000000000029,344.32000000000045,25.599999999998545,-70.39999999999782,-5.914171444092233,21.90625882816039,-7.680000000000291,25.60000000000076
1,flex,44621.2,30243.8,248.36618127319363,458.32669570952805,186.88000000000176,366.0799999999996,-83.20000000000437,-54.400000000001455,140.51146417715518,15.453169745243144,102.40000000000147,21.75999999999914
1,flex,44650.0,30301.4,263.4904172831484,448.981781367558,204.8,359.6800000000003,28.80000000000291,57.60000000000218,15.124236009954785,-9.344914341970025,17.919999999998254,-6.399999999999295
1,flex,44576.4,30077.4,236.1504605118564,134.4761688921653,190.71999999999971,106.24000000000088,-73.59999999999854,-224.0,-27.33995677129201,-314.5056124753927,-14.080000000000297,-253.43999999999943
1,flex,44627.6,30247.0,268.60945627471915,313.69794388866524,231.6800000000003,268.8,51.19999999999709,169.59999999999854,32.45899576286274,179.22177499649993,40.960000000000576,162.55999999999915
1,flex,44608.4,30346.2,263.9951514702852,305.4952700123115,216.3199999999997,259.84000000000015,-19.19999999999709,99.20000000000073,-4.614304804433971,-8.202673876353742,-15.360000000000582,-8.959999999999866
1,flex,44643.6,30381.4,206.5425864081124,272.77067291025656,177.9199999999997,231.6800000000003,35.19999999999709,35.20000000000073,-57.452565062172766,-32.72459710205493,-38.400000000000006,-28.159999999999854
1,flex,44576.4,30227.8,184.5487469478174,424.937830747141,148.4800000000003,354.55999999999983,-67.19999999999709,-153.60000000000218,-21.99383946029502,152.16715783688443,-29.4399999999994,122.87999999999954
1,flex,44573.2,30368.6,185.60000000035967,454.64781974634485,151.03999999999942,391.6800000000003,-3.2000000000043656,140.79999999999927,1.051253052542279,29.70998899920386,2.559999999999121,37.12000000000046
1,flex,44445.2,30128.6,137.4138275435962,467.96649452723096,124.16000000000058,423.6800000000003,-128.0,-240.0,-48.18617245676347,13.318674780886113,-26.879999999998844,32.0
1,flex,44493.2,30135.0,214.99618601299306,473.4486244567871,162.56000000000057,428.8,48.0,6.400000000001455,77.58235846939687,5.482129929556152,38.39999999999999,5.11999999999972
1,flex,44624.4,30243.8,268.79999999966293,530.9879094669537,244.4800000000003,515.8400000000001,131.20000000000437,108.79999999999927,53.803813986669866,57.53928501016662,81.91999999999973,87.04000000000013
1,flex,44602.0,30439.0,282.07233114921485,416.2460810625757,262.4,326.4,-22.400000000001455,195.20000000000073,13.272331149551917,-114.74182840437805,17.919999999999675,-189.44000000000017
1,flex,44589.2,30365.4,287.53740626302397,387.5304375141573,272.6399999999994,296.9599999999991,-12.80000000000291,-73.59999999999854,5.465075113809121,-28.71564354841837,10.23999999999944,-29.44000000000085
1,flex,44640.4,30483.8,241.72182359029728,174.5100570170948,231.6800000000003,151.04000000000013,51.200000000004366,118.39999999999782,-45.81558267272669,-213.02038049706252,-40.95999999999913,-145.919999999999
1,flex,44611.6,30381.4,219.75404433173145,242.14508047864516,197.11999999999972,206.0800000000003,-28.80000000000291,-102.39999999999782,-21.967779258565827,67.63502346155036,-34.56000000000057,55.04000000000016
1,flex,44637.4,30547.8,265.0913804706196,533.297065433619,228.0800000000003,405.7599999999999,25.80000000000291,166.39999999999782,45.33733613888813,291.15198495497384,30.960000000000576,199.67999999999958
1,flex,44656.6,30346.2,249.80280222619044,667.5970041873993,212.71999999999971,496.64000000000016,19.19999999999709,-201.59999999999854,-15.288578244429146,134.29993875378034,-15.360000000000582,90.88000000000028
1,flex,44733.4,30263.0,230.2864303425501,684.5307882045746,189.6800000000003,518.4,76.80000000000291,-83.20000000000073,-19.516371883640346,16.9337840171753,-23.039999999999424,21.75999999999982
1,flex,44650.2,30237.4,344.3256598052551,688.2306590089822,288.1600000000006,528.6400000000009,-83.20000000000437,-25.599999999998545,114.03922946270501,3.699870804407624,98.4800000000003,10.240000000000919
1,flex,44711.0,30317.4,378.2200417747523,683.7524698309601,336.8,545.2800000000003,60.80000000000291,80.0,33.8943819694972,-4.4781891780221486,48.63999999999942,16.639999999999418
1,flex,44637.2,30035.8,324.35437410373993,292.3055935148385,277.76000000000056,227.84000000000015,-73.80000000000291,-281.6000000000022,-53.865667671012375,-391.4468763161216,-59.03999999999945,-317.44000000000017
1,flex,44704.4,30275.8,321.69152926339046,281.6000000001101,245.75999999999914,252.15999999999985,67.20000000000437,240.0,-2.6628448403494644,-10.705593514728434,-32.00000000000142,24.31999999999971
1,flex,44752.6,30339.8,352.84648219919,234.8023849965878,267.6800000000003,200.95999999999987,48.19999999999709,64.0,31.154952935799543,-46.79761500352228,21.920000000001153,-51.19999999999999
1,flex,44874.2,30359.0,150.00853309201986,216.56223124092458,141.03999999999942,185.6,121.59999999999854,19.200000000000728,-202.83794910717015,-18.240153755663215,-126.64000000000087,-15.359999999999872
1,flex,44733.4,29837.2,238.33052678962216,1025.9201528384003,175.5199999999997,802.8799999999995,-140.79999999999563,-521.7999999999993,88.3219936976023,809.3579215974758,34.480000000000274,617.2799999999995
1,flex,44663.0,30006.8,273.59093552235976,1128.7204082499752,240.8,870.7200000000005,-70.40000000000146,169.59999999999854,35.2604087327376,102.80025541157488,65.28000000000031,67.84000000000094
1,flex,44506.2,29894.8,349.3997137950829,1076.6972462117835,301.0399999999994,825.9200000000004,-156.8000000000029,-112.0,75.80877827272315,-52.023162038191685,60.239999999999384,-44.80000000000007
1,flex,44464.4,29965.2,286.6814259762413,1110.4940161927568,250.88000000000028,854.0799999999996,-41.799999999995634,70.40000000000146,-62.71828781884159,33.796769980973295,-50.159999999999116,28.159999999999172
1,flex,44406.8,30134.8,261.81397976369476,1192.5314922466468,181.7600000000006,921.9200000000004,-57.599999999998545,169.59999999999854,-24.867446212546554,82.03747605389003,-69.11999999999969,67.84000000000083
1,flex,44509.2,30653.4,307.8326818261449,327.6837499785207,272.6399999999994,289.2800000000003,102.39999999999418,518.6000000000022,46.01870206245013,-864.8477422681261,90.87999999999883,-632.6400000000001
1,flex,44550.8,30189.4,303.47744561944694,804.8874703956536,259.8399999999994,606.7199999999997,41.60000000000582,-464.0,-4.355236206697953,477.2037204171329,-12.800000000000011,317.4399999999994
1,flex,44691.6,30157.4,167.6873280840322,807.6815213931404,148.4800000000003,645.1199999999997,140.79999999999563,-32.0,-135.79011753541474,2.7940509974868064,-111.3599999999991,38.39999999999998
1,flex,44640.4,30067.8,146.85176199085527,774.3338814749346,122.8800000000003,573.4400000000002,-51.19999999999709,-89.60000000000218,-20.835566093176936,-33.3476399182058,-25.60000000000001,-71.6799999999995
1,flex,44720.4,29802.2,101.49600977289109,608.3704134817395,94.71999999999971,488.95999999999987,80.0,-265.59999999999854,-45.35575221796418,-165.96346799319508,-28.16000000000058,-84.4800000000003
1,flex,44723.6,29773.4,105.4544451415155,581.0974444960934,97.28000000000029,465.91999999999973,3.1999999999970896,-28.799999999999272,3.9584353686244214,-27.272968985646116,2.5600000000005707,-23.040000000000134
1,flex,44810.0,30330.2,141.30817386124556,599.2122829180782,108.8,453.12000000000046,86.40000000000146,556.7999999999993,35.85372871973006,18.114838421984814,11.519999999999712,-12.799999999999272
1,flex,44813.2,30323.8,139.99771426753193,602.620411204279,106.23999999999941,455.67999999999955,3.1999999999970896,-6.400000000001455,-1.310459593713631,3.4081282862007356,-2.560000000000585,2.559999999999093
1,flex,44742.8,30397.4,262.984714384315,603.4015578368504,197.11999999999824,487.6800000000003,-70.39999999999418,73.60000000000218,122.98700011678307,0.7811466325714491,90.87999999999883,32.00000000000074
1,flex,44682.0,30711.0,275.27440854536405,567.4025026381395,243.2,524.8,-60.80000000000291,313.59999999999854,12.289694161049056,-35.99905519871095,46.080000000001746,37.11999999999966
1,flex,44560.4,30243.6,303.5111859552492,1264.7648951485523,270.08000000000027,1021.6800000000003,-121.59999999999854,-467.40000000000146,28.23677740988512,697.3623925104129,26.88000000000028,496.88000000000034
1,flex,44499.6,29667.4,222.0717001334312,1233.8636229340493,199.6800000000003,1124.3199999999997,-60.80000000000291,-576.1999999999971,-81.43948582181798,-30.901272214503024,-70.39999999999998,102.63999999999942
1,flex,44496.4,29673.8,218.35164299830038,1235.607283889187,197.11999999999972,1129.44,-3.1999999999970896,6.399999999997817,-3.7200571351308156,1.7436609551377842,-2.5600000000005707,5.120000000000346
1,flex,44637.2,29718.6,239.97866571891112,1270.177404932124,207.36000000000058,1165.2800000000002,140.79999999999563,44.79999999999927,21.62702272061074,34.57012104293699,10.240000000000862,35.840000000000146
1,flex,44611.6,29417.8,258.7057015222218,1020.4652664349402,238.0800000000003,924.6400000000001,-25.599999999998545,-300.7999999999993,18.727035803310656,-249.7121384971839,30.719999999999715,-240.6400000000001
1,flex,44768.4,30022.8,227.76268351052192,848.3698250174469,180.4800000000003,678.6400000000001,156.8000000000029,605.0,-30.94301801169985,-172.09544141749325,-57.599999999999994,-246.0
1,flex,44739.6,30208.6,239.59432380600592,567.8174354491987,206.0800000000003,529.9199999999997,-28.80000000000291,185.79999999999927,11.831640295483993,-280.55238956824826,25.599999999999994,-148.72000000000037
1,flex,44755.6,30442.2,242.14508047864516,673.7804983820522,218.88000000000028,642.5599999999998,16.0,233.60000000000218,2.5507566726392383,105.96306293285352,12.799999999999983,112.6400000000001
1,flex,44650.0,30448.6,247.66428890719112,677.0552710082342,224.0,647.6800000000003,-105.59999999999854,6.399999999997817,5.519208428545966,3.2747726261819707,5.11999999999972,5.120000000000459
1,flex,44797.4,30531.8,260.881275678657,610.4707691609343,233.11999999999972,547.8400000000001,147.40000000000146,83.20000000000073,13.216986771465884,-66.58450184729986,9.11999999999972,-99.84000000000015
1,flex,44640.6,30307.8,303.6548040127301,615.1495427943015,263.91999999999973,552.9599999999998,-156.8000000000029,-224.0,42.77352833407309,4.6787736333672,30.80000000000001,5.1199999999996635
1,flex,44650.2,30451.8,302.5335683856937,481.5335502329436,256.23999999999944,437.7599999999999,9.599999999998545,144.0,-1.1212356270364126,-133.61599256135793,-7.680000000000291,-115.19999999999993
1,flex,44599.0,30439.0,289.84547607319206,462.17572415692297,220.4,422.4,-51.19999999999709,-12.799999999999272,-12.688092312501624,-19.357826076020615,-35.839999999999435,-15.3599999999999
1,flex,44631.0,30269.4,277.55071608643954,451.48359881596895,194.8,343.0400000000009,32.0,-169.59999999999854,-12.294759986752524,-10.692125340954021,-25.599999999999994,-79.3599999999991
1,flex,44602.0,30384.6,228.74964480867587,486.8419045235127,160.0,446.7199999999997,-29.0,115.19999999999709,-48.80107127776367,35.358305707543764,-34.80000000000001,103.67999999999881
1,flex,44637.2,30349.4,180.2824450694767,528.9784872751352,133.11999999999824,474.8800000000003,35.19999999999709,-35.19999999999709,-48.467199739199174,42.136582751622484,-26.880000000001758,28.160000000000593
1,flex,44605.2,30275.8,191.8399332781921,564.7252075125228,145.91999999999825,533.7599999999999,-32.0,-73.60000000000218,11.557488208715398,35.74672023738765,12.800000000000011,58.8799999999996
1,flex,44630.8,30029.4,193.96329549621507,377.22014792405065,162.56000000000057,291.8400000000009,25.60000000000582,-246.39999999999782,2.123362218022976,-187.5050595884722,16.640000000002317,-241.919999999999
1,flex,44714.0,30151.0,240.53274205396653,429.32505167995964,217.6,409.6,83.19999999999709,121.59999999999854,46.56944655775146,52.10490375590899,55.039999999999424,117.75999999999914
1,flex,44582.8,29767.0,243.99868852085066,554.2562584220408,213.7600000000006,409.6,-131.1999999999971,-384.0,3.4659464668841338,124.93120674208114,-3.8399999999994066,0.0
1,flex,44675.6,30125.4,254.71678389950063,867.2885563639924,225.28000000000029,711.6800000000003,92.79999999999563,358.40000000000146,10.718095378649963,313.0322979419516,11.519999999999698,302.08000000000027
1,flex,44672.4,30480.6,257.31661430944513,1034.6248788812807,229.11999999999972,890.8800000000003,-3.1999999999970896,355.1999999999971,2.599830409944502,167.3363225172883,3.839999999999435,179.20000000000005
1,flex,44710.8,30579.8,272.1693590388326,996.8089887235598,259.8399999999994,776.9599999999998,38.400000000001455,99.20000000000073,14.852744729387496,-37.8158901577209,30.719999999999686,-113.92000000000053
1,flex,44477.2,30301.4,395.3521974143712,1144.8936369811556,330.23999999999944,1035.5199999999998,-233.60000000000582,-278.3999999999978,123.18283837553855,148.08464825759586,70.40000000000003,258.55999999999995
1,flex,44576.4,30656.6,404.0879112272005,881.2267812544651,344.3199999999997,715.5199999999998,99.20000000000437,355.1999999999971,8.735713812829317,-263.6668557266905,14.080000000000268,-320.0
1,flex,44566.8,30483.8,397.0321901303525,785.6896079242017,336.6399999999994,560.6400000000001,-9.599999999998545,-172.79999999999927,-7.0557210968480035,-95.53717333026339,-7.680000000000291,-154.87999999999965
1,flex,44630.8,30346.2,400.11518341548725,612.4803343781468,318.71999999999827,468.47999999999956,64.0,-137.59999999999854,3.082993285134762,-173.20927354605487,-17.920000000001153,-92.16000000000054
1,flex,44624.4,30000.4,396.15431336762083,906.8952751006931,316.1599999999991,865.5199999999998,-6.400000000001455,-345.7999999999993,-3.960870047866422,294.41494072254625,-2.5599999999991496,397.0400000000002
1,flex,44762.0,29946.0,123.10645799489028,961.3012014972206,96.0,930.8,137.59999999999854,-54.400000000001455,-273.04785537273057,54.40592639652755,-220.15999999999912,65.2800000000002
1,flex,44675.6,30131.6,191.62630299649604,1144.6493961034573,180.4800000000003,1079.2800000000002,-86.40000000000146,185.59999999999854,68.51984500160576,183.3481946062367,84.4800000000003,148.48000000000025
1,flex,44595.6,30243.6,188.93554456508417,1210.4114341826225,177.9199999999997,1168.8800000000003,-80.0,112.0,-2.690758431411865,65.76203807916522,-2.560000000000599,89.60000000000014
1,flex,44541.2,30138.0,166.40000000083103,1166.3183098965635,126.71999999999825,1084.4,-54.400000000001455,-105.59999999999854,-22.535544564253144,-44.09312428605904,-51.20000000000145,-84.48000000000025
1,flex,44474.0,30551.0,56.34181395815516,907.4130261352744,51.2,710.4,-67.19999999999709,413.0,-110.05818604267587,-258.90528376128907,-75.51999999999825,-374.0000000000001
1,flex,44454.8,30979.8,52.96942514084937,381.511939524852,47.36000000000058,323.84000000000015,-19.19999999999709,428.7999999999993,-3.37238881730579,-525.9010866104225,-3.8399999999994208,-386.55999999999983
1,flex,44544.4,30855.0,145.4504726699579,259.37771685314897,112.64000000000087,224.0,89.59999999999854,-124.79999999999927,92.48104752910852,-122.13422267170301,65.28000000000029,-99.84000000000015
1,flex,44477.2,30336.4,230.17767050743407,909.8086831855993,168.96000000000058,708.1599999999992,-67.20000000000437,-518.5999999999985,84.72719783747618,650.4309663324503,56.31999999999971,484.1599999999992
1,flex,44554.0,30096.4,284.6021784879648,1008.2578241699462,243.2,961.5199999999998,76.80000000000291,-240.0,54.424507980530734,98.44914098434685,74.23999999999941,253.36000000000058
1,flex,44509.2,29981.2,303.1398357201958,961.4456614910645,279.0399999999994,869.3599999999999,-44.80000000000291,-115.20000000000073,18.53765723223097,-46.81216267888169,35.83999999999941,-92.15999999999985
1,flex,44637.4,29885.2,369.1913325090002,869.8322596914687,348.3199999999997,792.5599999999998,128.20000000000437,-96.0,66.0514967888044,-91.61340179959575,69.28000000000031,-76.80000000000007
1,flex,44717.6,29827.6,438.49953249707414,806.7127369765377,412.4800000000003,746.4800000000002,80.19999999999709,-57.60000000000218,69.30819998807397,-63.11952271493101,64.1600000000006,-46.079999999999586
1,flex,44890.4,30365.4,316.7842167785661,671.3596949474359,237.11999999999972,542.7199999999997,172.8000000000029,537.8000000000029,-121.71531571850807,-135.35304202910186,-175.36000000000058,-203.76000000000056
1,flex,44791.2,30234.0,373.89057222680253,905.5442562348768,356.1600000000006,700.4,-99.20000000000437,-131.40000000000146,57.10635544823646,234.18456128744094,119.04000000000087,157.6800000000003
1,flex,44858.4,30189.2,302.60773288172726,914.0434125357582,275.5199999999997,754.1599999999999,67.20000000000437,-44.79999999999927,-71.28283934507527,8.499156300881396,-80.6400000000009,53.75999999999988
1,flex,44666.2,29978.0,398.9347816376463,924.2912960749853,345.8399999999994,772.0,-192.20000000000437,-211.20000000000073,96.32704875591907,10.247883539227132,70.31999999999971,17.840000000000146
1,flex,44480.4,30006.8,298.06415416820846,946.1738529467183,257.2800000000003,806.5599999999998,-185.79999999999563,28.799999999999272,-100.87062746943786,21.88255687173296,-88.55999999999909,34.55999999999983
1,flex,44467.6,30022.8,277.4235750615188,967.5801568863086,241.9199999999997,825.7599999999999,-12.80000000000291,16.0,-20.640579106689643,21.406303939590316,-15.36000000000061,19.200000000000045
1,flex,44560.4,30311.0,312.6516272146394,654.7891263605042,286.7199999999997,595.2,92.80000000000291,288.2000000000007,35.228052153120586,-312.79103052580444,44.79999999999998,-230.55999999999983
1,flex,44602.0,30295.0,332.861532772942,664.876529891041,320.0,608.0,41.599999999998545,-16.0,20.20990555830258,10.08740353053679,33.280000000000314,12.799999999999955
1,flex,44723.6,30573.4,222.0717001334312,561.7435713917108,174.0800000000003,517.1199999999997,121.59999999999854,278.40000000000146,-110.78983263951079,-103.13295849933013,-145.9199999999997,-90.88000000000034
1,flex,44762.0,30339.8,150.09330431434975,663.056679326953,128.0,623.3599999999999,38.400000000001455,-233.60000000000218,-71.97839581908144,101.31310793524221,-46.0800000000003,106.24000000000024
1,flex,44602.0,30352.6,280.7988603965479,682.4783073476437,243.2,638.7199999999997,-160.0,12.799999999999272,130.70555608219817,19.42162802069072,115.19999999999999,15.359999999999786
1,flex,44518.8,30579.8,252.86075219318707,717.7850374589974,207.36000000000058,682.2400000000001,-83.19999999999709,227.20000000000073,-27.938108203360855,35.30673011135366,-35.83999999999941,43.52000000000044
1,flex,44426.0,30416.6,195.95917942265424,927.8675767586717,147.2,878.0800000000003,-92.80000000000291,-163.20000000000073,-56.90157277053282,210.0825392996743,-60.16000000000059,195.84000000000015
1,flex,44422.8,30119.0,191.30541027308152,962.1309682158661,144.63999999999942,921.6,-3.1999999999970896,-297.59999999999854,-4.6537691495727245,34.263391457194416,-2.5600000000005707,43.519999999999754
1,flex,44416.4,30147.8,189.4767531916705,948.4316316952224,139.5199999999997,898.5599999999998,-6.400000000001455,28.799999999999272,-1.8286570814110235,-13.69933652064367,-5.11999999999972,-23.04000000000019
1,flex,44563.6,29968.6,176.60985250036384,761.2772425339411,165.11999999999972,683.5199999999998,147.1999999999971,-179.20000000000073,-12.866900691306654,-187.1543891612813,25.600000000000023,-215.04000000000008
1,flex,44554.0,29725.4,184.10431825488334,494.87355960882996,172.8,401.91999999999973,-9.599999999998545,-243.1999999999971,7.494465754519496,-266.4036829251112,7.680000000000291,-281.6
1,flex,44669.2,29965.4,215.47194713076746,376.812738638059,194.56000000000057,321.2800000000003,115.19999999999709,240.0,31.367628875884122,-118.06082097077098,21.76000000000056,-80.63999999999942
1,flex,44634.0,30093.4,222.1639034585779,258.11129382484995,211.2,218.88000000000028,-35.19999999999709,128.0,6.691956327810431,-118.70144481320904,16.639999999999418,-102.40000000000003
1,flex,44659.6,30749.6,207.28492468146416,1157.4322615168705,190.71999999999971,912.9599999999991,25.599999999998545,656.1999999999971,-14.87897877711373,899.3209676920205,-20.480000000000274,694.0799999999988
1,flex,44560.4,30797.6,214.80558651910988,1151.1697702772396,167.6800000000003,893.7599999999991,-99.19999999999709,48.0,7.520661837645719,-6.26249123963089,-23.039999999999424,-19.200000000000045
1,flex,44595.6,30554.4,198.45160619203935,1408.9842582512647,143.35999999999913,1066.4800000000002,35.19999999999709,-243.1999999999971,-16.35398032707053,257.81448797402504,-24.32000000000116,172.72000000000116
1,flex,44416.4,30151.0,198.45160619143866,1702.0816666658507,171.5199999999997,1389.2,-179.1999999999971,-403.40000000000146,-6.006928288115887e-10,293.09740841458597,28.160000000000565,322.7199999999998
1,flex,44480.4,30192.6,263.21823645012546,1701.7687974575397,222.71999999999971,1384.0800000000004,64.0,41.599999999998545,64.7666302586868,-0.3128692083109854,51.20000000000002,-5.1199999999996635
1,flex,44438.8,29792.4,259.6539235205372,1124.278186215466,213.7600000000006,1063.9199999999996,-41.599999999998545,-400.1999999999971,-3.5643129295882545,-577.4906112420738,-8.959999999999127,-320.16000000000076
1,flex,44509.2,29616.4,272.35741223697147,1026.3012423260577,232.96000000000058,923.1199999999997,70.39999999999418,-176.0,12.703488716434265,-97.97694388940818,19.19999999999999,-140.79999999999995
1,flex,44506.0,29545.8,271.71750035670385,1095.9352900604883,230.4,1007.8400000000001,-3.1999999999970896,-70.60000000000218,-0.6399118802676185,69.63404773443062,-2.5600000000005707,84.72000000000048
1,flex,44598.8,30442.0,158.52116577857902,1423.6058443263094,136.96000000000058,1136.8,92.80000000000291,896.2000000000007,-113.19633457812483,327.670554265821,-93.43999999999943,128.9599999999998
1,flex,44611.6,31184.6,178.9140575807545,1991.637979151842,152.3199999999997,1720.7199999999998,12.799999999995634,742.5999999999985,20.392891802175484,568.0321348255327,15.359999999999133,583.9199999999998
1,flex,44538.0,30983.0,296.7557918558625,2047.223387908614,217.6,1882.0,-73.59999999999854,-201.59999999999854,117.84173427510802,55.58540875677204,65.28000000000029,161.2800000000002
1,flex,44598.8,30387.6,349.7235479628221,2634.9239533618666,284.1600000000006,2358.3199999999997,60.80000000000291,-595.4000000000015,52.9677561069596,587.7005654532525,66.5600000000006,476.3199999999997
1,flex,44634.0,30819.8,352.2907889797182,2436.3138878231625,294.4,2012.56,35.19999999999709,432.2000000000007,2.5672410168960482,-198.61006553870402,10.239999999999384,-345.75999999999976
1,flex,44694.8,30032.6,353.94372434025075,2337.1020174566947,273.91999999999825,1771.9199999999996,60.80000000000291,-787.2000000000007,1.652935360532581,-99.21187036646779,-20.480000000001723,-240.64000000000033
1,flex,44531.6,28953.8,403.5807725846924,1268.4651197412209,385.2800000000003,1053.7599999999998,-163.20000000000437,-1078.7999999999993,49.637048244441644,-1068.6368977154739,111.36000000000206,-718.1599999999999
1,flex,44707.6,29734.8,321.21369833842385,2391.430149513066,247.04000000000087,1990.9599999999998,176.0,781.0,-82.36707424626854,1122.9650297718454,-138.23999999999944,937.2
1,flex,44605.2,30221.4,291.25274247691516,1973.2217918926422,252.1600000000006,1601.6800000000003,-102.40000000000146,486.6000000000022,-29.960955861508694,-418.20835762042407,5.11999999999972,-389.2799999999995
1,flex,44493.2,30023.0,327.1833736611269,1983.1708953088114,291.8399999999994,1562.0,-112.0,-198.40000000000146,35.930631184211734,9.949103416169237,39.67999999999881,-39.68000000000029
1,flex,44490.0,30359.0,323.9753077010654,1880.1975428129758,288.0,1459.6,-3.1999999999970896,336.0,-3.2080659600615036,-102.97335249583557,-3.8399999999994066,-102.40000000000009
1,flex,44579.6,30720.8,255.71984670749532,1665.2034590403846,216.3199999999997,1282.8799999999997,89.59999999999854,361.7999999999993,-68.25546099357007,-214.99408377259124,-71.68000000000029,-176.72000000000025
1,flex,44477.2,29779.8,209.2026768476658,528.0872655159238,162.56000000000057,508.15999999999985,-102.40000000000146,-941.0,-46.51716985982952,-1137.1161935244609,-53.75999999999914,-774.7199999999998
1,flex,44429.2,30093.4,227.49276911646348,619.065618492814,195.8399999999994,574.7199999999997,-48.0,313.6000000000022,18.29009226879768,90.97835297689016,33.279999999998836,66.55999999999983
1,flex,44493.2,30323.8,186.97422282264878,578.4304279687486,144.63999999999942,440.32000000000045,64.0,230.39999999999782,-40.518546293814694,-40.635190524065365,-51.19999999999999,-134.39999999999924
1,flex,44506.0,30368.6,209.1047584345041,594.0806679231646,160.0,458.24000000000086,12.80000000000291,44.79999999999927,22.130535611855322,15.650239954415952,15.360000000000582,17.920000000000414
1,flex,44566.8,30288.6,249.80504398371215,612.3298457531148,232.96000000000058,545.2800000000003,60.80000000000291,-80.0,40.70028554920805,18.249177829950213,72.96000000000058,87.03999999999945
1,flex,44598.8,30186.2,233.27100119744134,796.9477774609767,207.36000000000058,668.1599999999999,32.0,-102.39999999999782,-16.534042786270817,184.61793170786189,-25.599999999999994,122.87999999999954
1,flex,44592.4,29949.4,242.98938248342407,726.3083642640461,212.4800000000003,593.9199999999997,-6.400000000001455,-236.79999999999927,9.71838128598273,-70.6394131969306,5.11999999999972,-74.24000000000012
1,flex,44643.6,30125.4,242.98938248440524,953.0199578182829,212.4800000000003,788.4800000000002,51.19999999999709,176.0,9.811742529564071e-10,226.71159355423686,0.0,194.5600000000005
1,flex,44544.4,30099.8,229.55400236101713,939.8634794479539,199.6800000000003,757.7599999999999,-99.19999999999709,-25.600000000002183,-13.435380123388114,-13.156478370329069,-12.800000000000011,-30.72000000000037
1,flex,44486.8,30074.2,177.9959550093888,944.2115017304196,151.03999999999942,778.2400000000001,-57.599999999998545,-25.599999999998545,-51.55804735162832,4.348022282465763,-48.64000000000087,20.480000000000246
1,flex,44522.0,30435.8,200.60707863893458,654.7422088119982,179.2,522.2400000000001,35.19999999999709,361.59999999999854,22.611123629545773,-289.4692929184214,28.160000000000565,-256.0
1,flex,44570.0,30583.0,142.39101095240417,547.3777489083532,128.0,390.4,48.0,147.20000000000073,-58.21606768653041,-107.36445990364507,-51.19999999999999,-131.84000000000015
1,flex,44435.6,29648.4,212.6495708910615,1403.2789601500888,167.6800000000003,1104.9599999999991,-134.40000000000146,-934.5999999999985,70.25855993865733,855.9012112417356,39.68000000000029,714.5599999999991
1,flex,44550.8,29930.0,291.60411519654747,1669.0473929760196,227.8399999999994,1244.4,115.20000000000437,281.59999999999854,78.95454430548597,265.76843282593086,60.159999999999116,139.44000000000096
1,flex,44550.8,30000.4,291.60411519654747,1672.1573610159692,227.8399999999994,1245.759999999999,0.0,70.40000000000146,0.0,3.1099680399495355,0.0,1.3599999999989905
1,flex,44570.0,30336.4,304.5889032780009,1896.3632141549092,249.6,1428.7199999999998,19.19999999999709,336.0,12.984788081453416,224.20585313894003,21.760000000000588,182.96000000000072
1,flex,44659.6,30579.6,323.7539806706705,1970.4524962556395,276.4800000000003,1623.2800000000002,89.59999999999854,243.1999999999971,19.165077392669616,74.08928210073032,26.880000000000308,194.5600000000004
1,flex,44787.6,30266.0,142.96517058430794,2567.623181076217,122.8800000000003,1999.6,128.0,-313.59999999999854,-180.78881008636256,597.1706848205774,-153.60000000000002,376.3199999999997
1,flex,44669.2,29978.0,192.63893687535577,2441.0065137151832,168.96000000000058,1864.0,-118.40000000000146,-288.0,49.673766291047826,-126.6166673610337,46.08000000000028,-135.5999999999999
1,flex,44768.4,30070.8,231.55267219331864,2457.020016198487,184.3199999999997,1901.1200000000003,99.20000000000437,92.79999999999927,38.913735317962875,16.01350248330391,15.359999999999133,37.120000000000346
1,flex,44694.8,29978.0,262.984714384315,2382.51984251967,234.2399999999994,1864.0,-73.59999999999854,-92.79999999999927,31.432042190996356,-74.50017367881719,49.9199999999997,-37.120000000000346
1,flex,44624.4,29728.4,243.4104352731544,2255.757752951314,206.0800000000003,1764.1599999999992,-70.40000000000146,-249.59999999999854,-19.574279111160592,-126.7620895683558,-28.159999999999116,-99.84000000000083
1,flex,44637.2,30768.6,249.39478743596243,491.03058967856686,221.43999999999943,386.55999999999915,12.799999999995634,1040.199999999997,5.9843521628080225,-1764.7271632727472,15.359999999999133,-1377.6
1,flex,44771.6,30419.8,245.92161352767923,955.53093094887,218.88000000000028,669.4400000000002,134.40000000000146,-348.7999999999993,-3.4731739082832007,464.5003412703032,-2.5599999999991496,282.880000000001
1,flex,44755.6,30458.2,229.33085269999086,968.9397091666574,206.0800000000003,700.1599999999999,-16.0,38.400000000001455,-16.59076082768837,13.408778217787358,-12.799999999999983,30.719999999999686
1,flex,44835.6,30272.6,167.38171943227522,776.3281780279372,135.6800000000003,605.4400000000009,80.0,-185.60000000000218,-61.94913326771564,-192.61153113872024,-70.4,-94.719999999999
1,flex,44880.4,29971.8,103.98769157846904,940.0813581813215,97.28000000000029,912.6400000000001,44.80000000000291,-300.7999999999993,-63.39402785380618,163.7531801533844,-38.400000000000006,307.19999999999925
1,flex,44816.4,29975.0,200.76015540905144,941.9639058902417,158.71999999999971,915.2,-64.0,3.2000000000007276,96.7724638305824,1.8825477089201286,61.43999999999943,2.5599999999999454
1,flex,44800.4,30435.8,185.37917898140233,784.8419968376044,145.9199999999997,613.1200000000005,-16.0,460.7999999999993,-15.380976427649102,-157.1219090526373,-12.800000000000011,-302.0799999999996
1,flex,44672.4,30391.0,237.66329123294526,764.8602486729505,222.71999999999971,595.2,-128.0,-44.79999999999927,52.28411225154292,-19.981748164653823,76.80000000000001,-17.920000000000414
1,flex,44653.2,30138.2,226.81657787787225,793.9225151109132,207.36000000000058,732.1599999999999,-19.200000000004366,-252.79999999999927,-10.846713355073007,29.06226643796265,-15.359999999999133,136.9599999999998
1,flex,44624.4,30435.8,218.11703280569782,499.38458125981236,184.3199999999997,375.04000000000013,-28.799999999995634,297.59999999999854,-8.69954507217443,-294.53793385110083,-23.040000000000873,-357.1199999999997
1,flex,44586.0,30234.2,257.396192667942,609.8833986919061,230.4,559.3599999999999,-38.400000000001455,-201.59999999999854,39.27915986224417,110.49881743209374,46.0800000000003,184.31999999999977
1,flex,44406.8,30026.2,250.62354238947188,447.4739768968906,226.56000000000057,394.2400000000001,-179.1999999999971,-208.0,-6.77265027847011,-162.40942179501553,-3.839999999999435,-165.11999999999978
1,flex,44534.8,29968.6,329.67766075349283,376.8127386382172,298.23999999999944,346.8800000000003,128.0,-57.60000000000218,79.05411836402095,-70.6612382586734,71.67999999999887,-47.35999999999984
1,flex,44486.8,30199.0,312.4550527673499,397.7536926289937,259.8399999999994,339.2,-48.0,230.40000000000146,-17.22260798614292,20.940953990776507,-38.400000000000034,-7.680000000000291
1,flex,44554.0,30634.2,368.0695586435364,1040.63488313627,332.8,797.4400000000002,67.19999999999709,435.2000000000007,55.61450587618651,642.8811905072763,72.9600000000006,458.2400000000002
1,flex,44662.8,30765.4,346.6354857769865,928.0331028578335,304.6399999999994,720.6400000000009,108.80000000000291,131.20000000000073,-21.43407286654991,-112.60178027843654,-28.160000000000593,-76.79999999999927
1,flex,44813.2,30339.6,169.44898937519977,1489.5287308407426,125.43999999999942,1040.8800000000003,150.39999999999418,-425.8000000000029,-177.18649640178674,561.4956279829091,-179.2,320.23999999999944
1,flex,44720.4,30227.6,184.5487469478174,1504.8342898804933,171.5199999999997,1122.7199999999998,-92.79999999999563,-112.0,15.09975757261762,15.305559039750733,46.08000000000028,81.83999999999946
1,flex,44765.2,30166.8,151.24866941670678,1490.7974241995585,117.76000000000059,1056.2400000000002,44.799999999995634,-60.79999999999927,-33.30007753111062,-14.036865680934852,-53.75999999999911,-66.47999999999956
1,flex,44726.8,30010.0,114.21803710339293,1252.2456627994554,88.31999999999826,930.8,-38.39999999999418,-156.79999999999927,-37.030632313313845,-238.55176140010303,-29.44000000000233,-125.44000000000028
1,flex,44627.6,29757.2,189.47675319229967,1317.6804468458922,174.0800000000003,1080.56,-99.20000000000437,-252.79999999999927,75.25871608890674,65.43478404643679,85.76000000000204,149.76
1,flex,44531.6,30010.2,194.27979822952489,1024.4698921881222,177.9199999999997,861.4400000000002,-96.0,253.0,4.803045037225218,-293.21055465777,3.8399999999994066,-219.11999999999978
1,flex,44432.4,30435.8,286.6814259762413,1262.6585286608815,257.2800000000003,1135.36,-99.19999999999709,425.59999999999854,92.40162774671643,238.1886364727593,79.36000000000061,273.91999999999973
1,flex,44346.0,30295.0,246.2129159892964,1298.5456480231846,172.8,1248.0,-86.40000000000146,-140.79999999999927,-40.46850998694492,35.88711936230311,-84.4800000000003,112.6400000000001
1,flex,44285.2,30138.2,151.24866941670678,1148.0108710286843,110.08000000000175,1059.8400000000001,-60.80000000000291,-156.79999999999927,-94.96424657258962,-150.53477699450036,-62.719999999998265,-188.15999999999985
1,flex,44272.4,30538.2,150.97761423393575,991.2461651880617,113.9199999999997,892.1599999999999,-12.799999999995634,400.0,-0.2710551827710219,-156.76470584062258,3.839999999997957,-167.6800000000003
1,flex,44282.0,30954.2,155.78446649121443,726.1532620596996,121.6,520.9599999999998,9.599999999998545,416.0,4.806852257278678,-265.0929031283621,7.680000000000291,-371.20000000000005
1,flex,44467.6,30439.0,247.1676354216186,765.9305451540785,190.71999999999971,736.0,185.59999999999854,-515.2000000000007,91.38316893040417,39.777283094378845,69.11999999999972,215.0400000000002
1,flex,44461.2,30304.6,251.84630233573253,927.9227554058505,195.8399999999994,897.2800000000003,-6.400000000001455,-134.40000000000146,4.678666914113933,161.992210251772,5.119999999999692,161.2800000000003
1,flex,44502.8,30381.4,267.233530829782,995.6372030011424,245.7600000000006,958.7199999999997,41.60000000000582,76.80000000000291,15.38722849404948,67.71444759529197,49.92000000000118,61.43999999999937
1,flex,44544.4,29808.4,239.3805338785129,1299.4305829862226,212.4800000000003,1202.0800000000004,41.599999999998545,-573.0,-27.85299695126912,303.79337998508015,-33.280000000000285,243.3600000000007
1,flex,44650.0,30093.2,258.388854248693,1681.6164128599573,230.4,1543.8400000000001,105.59999999999854,284.7999999999993,19.008320370180115,382.18582987373475,17.919999999999703,341.75999999999976
1,flex,44611.6,30531.6,224.82135129943708,1716.3481698070707,199.6800000000003,1597.6800000000003,-38.400000000001455,438.3999999999978,-33.567502949255925,34.731756947113354,-30.719999999999715,53.840000000000146
1,flex,44698.0,30374.6,143.8221123469973,1876.3420370497638,102.4,1786.0800000000004,86.40000000000146,-157.0,-80.99923895243978,159.9938672426931,-97.28000000000029,188.4000000000001
1,flex,44637.2,30720.4,193.43464012496977,2167.1131580976426,175.36000000000058,2062.72,-60.80000000000291,345.8000000000029,49.612527777972474,290.77112104787875,72.96000000000058,276.6399999999994
1,flex,44752.4,30800.4,221.8410241587854,2072.5239298980214,174.0800000000003,1966.7199999999998,115.20000000000437,80.0,28.406384033815613,-94.58922819962118,-1.2800000000002854,-96.0
1,flex,44624.4,30576.4,274.64129332624793,1913.534593363806,241.9199999999997,1787.5199999999998,-128.0,-224.0,52.800269167462545,-158.98933653421545,67.8399999999994,-179.20000000000005
1,flex,44490.0,30234.0,339.10942186858756,1862.4279851849305,300.8,1674.8,-134.40000000000146,-342.40000000000146,64.46812854233963,-51.106608178875376,58.88000000000031,-112.7199999999998
1,flex,44413.2,30589.4,326.55682507051284,1596.6939093012845,248.31999999999826,1390.4800000000002,-76.80000000000291,355.40000000000146,-12.552596798074717,-265.734075883646,-52.48000000000175,-284.3199999999997
1,flex,44467.6,29853.2,338.5956881000729,1001.5572674590495,299.5199999999997,737.4400000000002,54.400000000001455,-736.2000000000007,12.038863029560048,-595.136641842235,51.20000000000144,-653.0400000000001
1,flex,44378.0,30119.0,212.7458577738996,736.1391172869108,192.0,569.6,-89.59999999999854,265.7999999999993,-125.8498303261733,-265.41815017213867,-107.5199999999997,-167.84000000000015
1,flex,44394.0,29591.0,206.64171892421027,391.5262443310184,179.2,339.2,16.0,-528.0,-6.1041388496893205,-344.61287295589244,-12.800000000000011,-230.40000000000003
1,flex,44605.4,30311.2,293.5381406220774,1604.2883032671898,228.0800000000003,1248.3200000000004,211.40000000000146,720.2000000000007,86.89642169786711,1212.7620589361713,48.88000000000031,909.1200000000003
1,flex,44733.4,30842.4,277.6729010900616,1838.274364723576,247.28000000000029,1764.0800000000004,128.0,531.2000000000007,-15.865239532015778,233.9860614563861,19.19999999999999,515.76
1,flex,44631.0,30938.4,368.95202940206826,1773.4508281877775,329.2,1687.2800000000002,-102.40000000000146,96.0,91.27912831200666,-64.82353653579844,81.9199999999997,-76.80000000000018
1,flex,44659.8,30522.2,369.93426443071627,2190.838323564736,334.23999999999944,2020.2400000000002,28.80000000000291,-416.2000000000007,0.9822350286480059,417.38749537695867,5.039999999999452,332.96000000000004
1,flex,44717.4,30970.2,337.5983412279546,2037.5930310049391,265.1199999999997,1730.9599999999998,57.599999999998545,448.0,-32.33592320276165,-153.245292559797,-69.11999999999972,-289.2800000000004
1,flex,44547.6,30234.0,298.0641541686084,1641.6433230150672,270.08000000000027,1335.2,-169.8000000000029,-736.2000000000007,-39.53418705934621,-395.94970798987197,4.960000000000548,-395.75999999999976
1,flex,44579.8,29859.6,345.1981459969796,1198.6905522277552,295.8399999999994,906.4800000000002,32.200000000004366,-374.40000000000146,47.133991828371165,-442.9527707873119,25.75999999999914,-428.7199999999998
1,flex,44730.2,30102.8,277.0360265385651,1303.2440139897203,217.8399999999994,1101.0400000000002,150.39999999999418,243.20000000000073,-68.16211945841445,104.55346176196508,-78.0,194.55999999999995
1,flex,44650.2,30195.6,319.97024861739345,1134.5941300747825,281.8399999999994,989.6800000000003,-80.0,92.79999999999927,42.93422207882833,-168.64988391493785,64.0,-111.3599999999999
1,flex,44669.4,30176.4,321.2996109549758,1119.1060003413481,290.7199999999997,974.3199999999997,19.200000000004366,-19.19999999999709,1.3293623375823245,-15.488129733434334,8.88000000000028,-15.360000000000582
1,flex,44723.8,30013.2,270.0402932892646,1223.840577853174,225.43999999999943,1170.1599999999999,54.400000000001455,-163.20000000000073,-51.259317665711194,104.73457751182582,-65.28000000000026,195.84000000000015
1,flex,44688.4,30234.0,224.13710089991528,1426.9803082032886,197.11999999999972,1346.8,-35.400000000001455,220.79999999999927,-45.9031923893493,203.13973035011463,-28.31999999999971,176.6400000000001
1,flex,44707.6,30019.6,243.8307609804301,1355.4423041944772,212.4800000000003,1175.2800000000002,19.19999999999709,-214.40000000000146,19.69366008051483,-71.53800400881141,15.360000000000582,-171.51999999999975
1,flex,44736.4,30387.8,202.5375027002585,1007.2327238528887,180.4800000000003,866.5599999999998,28.80000000000291,368.2000000000007,-41.293258280171614,-348.20958034158843,-32.0,-308.72000000000037
1,flex,44666.0,30359.0,248.4898388265558,989.8816090826336,236.8,832.0,-70.40000000000146,-28.799999999999272,45.9523361262973,-17.351114770255094,56.31999999999971,-34.55999999999983
1,flex,44691.6,30531.8,242.14508047864516,779.211498888423,216.3199999999997,693.7599999999999,25.599999999998545,172.79999999999927,-6.344758347910641,-210.67011019421068,-20.480000000000302,-138.24000000000012
1,flex,44621.2,30032.6,209.2026768476658,492.9038851542243,170.2399999999994,357.1199999999997,-70.40000000000146,-499.2000000000007,-32.942403630979356,-286.30761373419864,-46.0800000000003,-336.64000000000016
1,flex,44442.0,30058.2,203.64675298172568,496.71174739474685,166.4,387.84000000000015,-179.1999999999971,25.600000000002183,-5.555923865940116,3.8078622405225246,-3.8399999999994066,30.720000000000425
1,flex,44422.8,30679.2,204.24925948397473,1313.6575505054452,168.96000000000058,1062.64,-19.19999999999709,621.0,0.6025065022490423,816.9458031106983,2.5600000000005707,674.8
1,flex,44515.6,29959.0,260.48078623961794,1864.9629486936067,225.28000000000029,1350.8,92.79999999999563,-720.2000000000007,56.231526755643216,551.3053981881615,56.31999999999971,288.15999999999985
1,flex,44458.0,30314.2,248.90158697766472,1967.0004982205871,204.8,1623.44,-57.599999999998545,355.2000000000007,-11.579199261953221,102.03754952698046,-20.480000000000274,272.6400000000001
1,flex,44381.2,30285.4,256.6790992661573,1981.1926307151182,189.43999999999943,1646.4800000000002,-76.80000000000291,-28.799999999999272,7.777512288492602,14.192132494531052,-15.360000000000582,23.04000000000019
1,flex,44541.2,29933.2,274.0440840450416,2119.7721953077803,259.8399999999994,1928.2400000000002,160.0,-352.2000000000007,17.364984778884264,138.5795645926621,70.39999999999998,281.76
1,flex,44518.8,29846.6,290.5487222475851,1993.2045153470854,277.76000000000056,1824.3199999999997,-22.39999999999418,-86.60000000000218,16.504638202543504,-126.56767996069493,17.920000000001153,-103.92000000000053
1,flex,44570.2,30330.0,358.0661391424382,1564.4319096720214,339.43999999999943,1437.6,51.39999999999418,483.40000000000146,67.51741689485311,-428.7726056750639,61.67999999999887,-386.7199999999998
1,flex,44567.0,30163.6,359.69431466176945,1464.1950143338424,342.0,1237.9199999999996,-3.1999999999970896,-166.40000000000146,1.6281755193312506,-100.23689533817901,2.5600000000005707,-199.6800000000003
1,flex,44627.8,30755.6,315.8837760948523,1571.6044795049754,293.3600000000006,1353.1199999999997,60.80000000000291,592.0,-43.81053856691716,107.40946517113298,-48.63999999999942,115.20000000000005
1,flex,44458.2,30688.4,354.82525276574745,1673.8099772674059,275.43999999999943,1428.7199999999998,-169.60000000000582,-67.19999999999709,38.941476670895156,102.20549776243047,-17.920000000001153,75.60000000000014
1,flex,44563.8,30246.8,360.4355143430681,1350.4014810418296,306.1600000000006,1075.44,105.60000000000582,-441.6000000000022,5.610261577320671,-323.4084962255763,30.720000000001164,-353.27999999999975
1,flex,44429.2,30586.0,241.46751334376145,1387.714379834715,176.63999999999942,1046.0,-134.60000000000582,339.2000000000007,-118.96800099930667,37.312898792885335,-129.52000000000118,-29.440000000000055
1,flex,44467.6,30701.2,245.50486756906656,1419.5098308923284,186.88000000000028,1138.1599999999999,38.400000000001455,115.20000000000073,4.0373542253051085,31.79545105761349,10.240000000000862,92.15999999999985
1,flex,44573.2,30486.8,336.137114880705,1244.8936340105392,272.6399999999994,966.6400000000001,105.59999999999854,-214.40000000000146,90.63224731163842,-174.61619688178916,85.75999999999914,-171.51999999999975
1,flex,44685.2,30522.0,210.17935198389952,1177.1575935277315,183.03999999999942,924.4,112.0,35.20000000000073,-125.95776289680546,-67.73604048280777,-89.6,-42.24000000000012
1,flex,44650.0,30806.8,203.64675298172568,1296.5703066166304,153.6,1017.9200000000004,-35.19999999999709,284.7999999999993,-6.532599002173839,119.41271308889895,-29.43999999999943,93.52000000000044
1,flex,44605.2,29260.8,263.7623172482779,3059.5758137362714,176.63999999999942,2629.84,-44.80000000000291,-1546.0,60.11556426655221,1763.005507119641,23.039999999999424,1611.9199999999996
1,flex,44621.2,29232.0,263.56813160943005,3040.685712137975,176.63999999999942,2606.8,16.0,-28.799999999999272,-0.19418563884784135,-18.890101598296496,0.0,-23.039999999999964
1,flex,44506.0,29363.2,165.65989255111717,3133.060765449657,140.8,2711.7599999999998,-115.19999999999709,131.20000000000073,-97.90823905831289,92.37505331168222,-35.83999999999941,104.95999999999958
1,flex,44518.8,29475.4,174.80320363085167,3101.5021908745953,151.03999999999942,2577.12,12.80000000000291,112.20000000000073,9.143311079734502,-31.55857457506181,10.239999999999412,-134.63999999999987
1,flex,44493.2,29638.6,167.62625092801306,3242.77816694268,131.8399999999994,2707.6800000000003,-25.60000000000582,163.1999999999971,-7.176952702838605,141.27597606808467,-19.200000000000017,130.5600000000004
1,flex,44605.2,30845.4,114.21803710548033,1404.089113980979,104.96000000000058,1259.5199999999998,112.0,1206.800000000003,-53.40821382253273,-1838.689052961701,-26.87999999999883,-1448.1600000000005
1,flex,44560.4,30640.6,130.61332244420618,1415.709800771376,122.8800000000003,1291.5199999999998,-44.799999999995634,-204.8000000000029,16.39528533872584,11.62068679039703,17.919999999999717,32.0
1,flex,44538.0,31300.0,153.79986996124336,2295.901914281188,140.8,2082.8,-22.400000000001455,659.4000000000015,23.186547517037184,880.1921135098121,17.919999999999717,791.2800000000004
1,flex,44400.4,31463.2,253.30582306752083,2137.5709953122005,190.71999999999971,1952.2400000000002,-137.59999999999854,163.20000000000073,99.50595310627747,-158.3309189689876,49.9199999999997,-130.55999999999995
1,flex,44349.2,30829.6,255.87997186262862,2143.31365880033,195.8399999999994,1706.559999999999,-51.200000000004366,-633.6000000000022,2.5741487951077886,5.742663488129438,5.119999999999692,-245.6800000000012
1,flex,44336.4,30855.2,235.7164398170173,2130.6224818113524,184.3199999999997,1696.3200000000004,-12.799999999995634,25.600000000002183,-20.163532045611333,-12.691176988977531,-11.519999999999698,-10.239999999998645
1,flex,44442.0,30615.2,345.09592869236764,2260.0814498597097,307.2,1792.3200000000004,105.59999999999854,-240.0,109.37948887535035,129.4589680483573,122.88000000000028,96.0
1,flex,44477.2,29549.4,342.47475819434715,316.88079777704866,296.9600000000006,241.9199999999997,35.19999999999709,-1065.7999999999993,-2.62117049802049,-1943.200652082661,-10.239999999999384,-1550.4000000000008
1,flex,44502.8,30029.4,307.16666485785055,1052.6297734720497,266.23999999999944,803.8400000000008,25.60000000000582,480.0,-35.3080933364966,735.748975695001,-30.720000000001164,561.9200000000011
1,flex,44614.8,30333.4,290.37245048359426,1087.180868117118,240.63999999999942,974.0800000000003,112.0,304.0,-16.794214374256285,34.55109464506836,-25.600000000000023,170.23999999999944
1,flex,44618.0,29920.4,291.3581987861413,1505.3254266104277,243.2,1304.4800000000002,3.1999999999970896,-413.0,0.9857483025470515,418.14455849330966,2.5600000000005707,330.4
1,flex,44621.2,30525.2,295.0948322154703,1598.9216866375734,245.7600000000006,1400.56,3.1999999999970896,604.7999999999993,3.7366334293290038,93.59626002714572,2.560000000000599,96.0799999999997
1,flex,44685.2,30874.0,301.27621877667667,1585.6468711538519,231.68000000000174,1236.8,64.0,348.7999999999993,6.181386561206352,-13.274815483721568,-14.079999999998847,-163.76
1,flex,44688.4,30410.0,295.1295308840151,1514.7078926314473,226.55999999999912,1327.6,3.2000000000043656,-464.0,-6.146687892661589,-70.93897852240457,-5.120000000002619,90.79999999999995
1,flex,44602.0,30122.0,314.1872053408678,1499.9959999946666,288.0,1296.8,-86.40000000000146,-288.0,19.057674456852737,-14.711892636780703,61.44000000000088,-30.799999999999955
1,flex,44486.8,30666.2,354.9548703705863,942.2030354440293,335.3600000000006,861.4400000000002,-115.19999999999709,544.2000000000007,40.7676650297185,-557.7929645506373,47.36000000000058,-435.3599999999998
1,flex,44346.0,30087.0,263.1015013261904,844.7030247371248,204.8,736.0,-140.8000000000029,-579.2000000000007,-91.85336904439595,-97.5000107069045,-130.56000000000057,-125.44000000000017
1,flex,44224.4,29968.6,87.98545334212243,657.5669091431904,75.51999999999971,593.9199999999997,-121.59999999999854,-118.40000000000146,-175.11604798406796,-187.1361155939344,-129.2800000000003,-142.08000000000027
2,flex,44826.0,29591.0,0.0,0.0,0.0,0.0,44826.0,29591.0,0.0,0.0,0.0,0.0
2,flex,44586.0,30199.0,240.0,608.0,240.0,608.0,-240.0,608.0,240.0,608.0,240.0,608.0
2,flex,44618.0,30055.0,201.11688143962456,536.5768040706073,181.33333333333334,501.3333333333333,32.0,-144.0,-38.883118560375436,-71.4231959293927,-58.66666666666666,-106.66666666666669
2,flex,44590.0,30223.0,180.79823007983236,548.277302101774,164.0,544.0,-28.0,168.0,-20.3186513597922,11.700498031166717,-17.333333333333343,42.666666666666686
2,flex,44688.6,30186.2,255.02595946343965,495.88643861260726,212.71999999999971,464.64000000000016,98.59999999999854,-36.79999999999927,74.22772938360728,-52.39086348916675,48.719999999999715,-79.35999999999984
2,flex,44634.2,30323.8,248.85047719548302,397.2900200105891,198.63999999999942,354.55999999999983,-54.400000000001455,137.59999999999854,-6.175482267956625,-98.59641860201816,-14.080000000000297,-110.08000000000033
2,flex,44752.6,30144.6,223.05837800943561,336.3198477641203,206.3199999999997,286.7199999999997,118.40000000000146,-179.20000000000073,-25.79209918604741,-60.97017224646879,7.680000000000291,-67.84000000000015
2,flex,44829.6,30311.0,250.19720222277647,313.3713452120724,239.6800000000003,281.6,77.0,166.40000000000146,27.138824213340854,-22.9485025520479,33.36000000000058,-5.1199999999996635
2,flex,44848.8,30221.4,227.25967526114204,236.1504605118564,216.63999999999942,197.11999999999972,19.200000000004366,-89.59999999999854,-22.937526961634433,-77.220884700216,-23.040000000000873,-84.4800000000003
2,flex,44669.4,30317.4,310.40850503782724,240.02133238504098,266.4800000000003,193.28000000000029,-179.40000000000146,96.0,83.1488297766852,3.8708718731845693,49.840000000000884,-3.839999999999435
2,flex,44659.8,30320.6,314.5437330479691,239.59432380600592,274.1600000000006,190.71999999999971,-9.599999999998545,3.1999999999970896,4.135228010141873,-0.4270085790350606,7.680000000000291,-2.5600000000005707
2,flex,44621.4,30362.2,288.9121665835649,173.92228149354222,228.0800000000003,157.44000000000014,-38.400000000001455,41.60000000000218,-25.631566464404216,-65.6720423124637,-46.0800000000003,-33.279999999999575
2,flex,44602.0,30298.2,260.1661007896597,127.75977457690969,204.8,88.32000000000043,-19.400000000001455,-64.0,-28.74606579390519,-46.16250691663252,-23.280000000000285,-69.1199999999997
2,flex,44525.2,30250.2,302.1247424498231,165.47434846486405,266.23999999999944,136.95999999999987,-76.80000000000291,-48.0,41.95864166016338,37.71457388795436,61.43999999999943,48.63999999999943
2,flex,44669.2,30327.0,276.6473567566972,303.7472633621185,245.7600000000006,230.4,144.0,76.79999999999927,-25.477385693125882,138.27291489725442,-20.479999999998853,93.44000000000014
2,flex,44634.0,30301.4,304.92490878911104,310.6802858245266,288.0,240.64000000000087,-35.19999999999709,-25.599999999998545,28.277552032413837,6.9330224624081325,42.23999999999941,10.240000000000862
2,flex,44698.2,30234.2,351.91839963289954,372.96133847889195,339.3600000000006,285.44000000000017,64.19999999999709,-67.20000000000073,46.99349084378849,62.28105265436534,51.36000000000058,44.7999999999993
2,flex,44727.2,30317.4,378.1202983182423,417.4252507933776,362.56000000000057,385.2800000000003,29.0,83.20000000000073,26.20189868534277,44.46391231448564,23.19999999999999,99.84000000000015
2,flex,44864.8,30333.4,280.3179623210889,407.8713522668169,213.91999999999825,372.4800000000003,137.60000000000582,16.0,-97.80233599715342,-9.553898526560658,-148.64000000000232,-12.800000000000011
2,flex,44727.2,30045.4,378.1202983182423,412.36566297394114,362.56000000000057,337.91999999999973,-137.60000000000582,-288.0,97.80233599715342,4.494310707124214,148.64000000000232,-34.56000000000057
2,flex,44756.0,30119.0,351.3032877728303,457.834904741821,328.0,396.8,28.80000000000291,73.59999999999854,-26.817010545412018,45.46924176787985,-34.56000000000057,58.88000000000028
2,flex,44611.8,30176.6,341.90080432758185,429.15805946073635,318.9600000000006,350.7199999999997,-144.1999999999971,57.599999999998545,-9.402483445248436,-28.67684528108464,-9.039999999999395,-46.080000000000325
2,flex,44570.0,30128.6,286.03775974494107,378.980527204405,268.8,293.1199999999997,-41.80000000000291,-48.0,-55.86304458264078,-50.17753225633135,-50.16000000000059,-57.599999999999966
2,flex,44486.8,30218.2,231.50844477005026,417.15531879618027,168.96000000000058,360.95999999999987,-83.19999999999709,89.60000000000218,-54.52931497489081,38.17479159177526,-99.83999999999943,67.84000000000015
2,flex,44663.0,30349.4,288.195766797419,211.44228526932395,271.6,203.5199999999997,176.1999999999971,131.20000000000073,56.687322027368765,-205.71303352685632,102.63999999999945,-157.44000000000017
2,flex,44656.6,30221.4,292.6428540049331,250.46005669569257,276.7199999999997,231.6800000000003,-6.400000000001455,-128.0,4.447087207514073,39.017771426368625,5.1199999999996635,28.160000000000593
2,flex,44727.0,30327.0,248.45925219238666,274.9021644149927,220.4,256.0,70.40000000000146,105.59999999999854,-44.18360181254644,24.44210771930011,-56.31999999999968,24.31999999999971
2,flex,44659.8,30208.6,236.08845799774298,318.33165095554205,190.96000000000058,299.5199999999997,-67.19999999999709,-118.40000000000146,-12.370794194643679,43.42948654054936,-29.43999999999943,43.5199999999997
2,flex,44836.0,30221.4,346.5342695896035,333.41481670726336,319.2,314.8800000000003,176.1999999999971,12.80000000000291,110.44581159186055,15.08316575172131,128.2399999999994,15.360000000000582
2,flex,44781.4,30333.4,321.38923441827023,372.02666571082534,253.6800000000003,363.5199999999997,-54.599999999998545,112.0,-25.14503517133329,38.611849003561986,-65.5199999999997,48.63999999999942
2,flex,44807.0,30371.8,297.54865148416934,332.6153333808262,233.2,317.44000000000017,25.599999999998545,38.39999999999782,-23.840582934100894,-39.41133232999914,-20.480000000000302,-46.07999999999953
2,flex,44775.0,30064.6,315.60608359163115,590.3631424809528,258.8,481.2800000000003,-32.0,-307.2000000000007,18.057432107461807,257.7478091001266,25.600000000000023,163.84000000000015
2,flex,44752.6,30173.4,332.8636958279589,593.3045086630392,276.7199999999997,478.7199999999997,-22.400000000001455,108.80000000000291,17.25761223632776,2.9413661820864263,17.919999999999675,-2.5600000000006276
2,flex,44582.8,30055.0,126.95574031823864,547.471277785376,97.28000000000175,403.2,-169.79999999999563,-118.40000000000146,-205.90795550972027,-45.833230877663254,-179.43999999999795,-75.5199999999997
2,flex,44531.6,30055.0,41.22911592737089,547.471277785376,33.28000000000029,403.2,-51.200000000004366,0.0,-85.72662439086776,0.0,-64.00000000000145,0.0
2,flex,44659.8,30131.8,278.00460427788664,572.9161893331677,220.48000000000175,464.64000000000016,128.20000000000437,76.79999999999927,236.77548835051576,25.444911547791776,187.20000000000147,61.44000000000017
2,flex,44669.4,30317.4,274.438772770661,263.21823645012546,216.64000000000087,241.9199999999997,9.599999999998545,185.60000000000218,-3.565831507225653,-309.69795288304226,-3.8400000000008845,-222.72000000000045
2,flex,44611.8,30112.6,336.06689810185077,447.6112599121615,239.68000000000174,369.91999999999973,-57.599999999998545,-204.8000000000029,61.62812533118978,184.393023462036,23.040000000000873,128.00000000000003
2,flex,44675.8,30323.8,343.26456269138004,589.6515581256766,280.56000000000057,509.44000000000017,64.0,211.20000000000073,7.197664589529268,142.04029821351514,40.87999999999883,139.52000000000044
2,flex,44618.2,29917.2,378.5363390749016,848.6074239599503,326.6399999999994,722.1599999999999,-57.60000000000582,-406.59999999999854,35.27177638352157,258.9558658342737,46.07999999999885,212.7199999999997
2,flex,44442.0,29901.2,242.01818113512115,838.7114879384442,217.6,709.3599999999999,-176.1999999999971,-16.0,-136.51815793978045,-9.895936021506145,-109.03999999999942,-12.799999999999955
2,flex,44538.2,30096.4,351.13552939046804,943.8787210229723,333.0399999999994,865.5199999999998,96.19999999999709,195.20000000000073,109.11734825534688,105.1672330845281,115.4399999999994,156.15999999999985
2,flex,44704.6,30243.6,333.9386770055249,876.1012726848747,318.8800000000003,688.8800000000003,166.40000000000146,147.1999999999971,-17.196852384943156,-67.77744833809754,-14.159999999999116,-176.63999999999942
2,flex,44675.8,30106.0,326.98403630713284,780.3737566064402,295.8399999999994,584.0,-28.799999999995634,-137.59999999999854,-6.954640698392041,-95.72751607843452,-23.040000000000873,-104.88000000000034
2,flex,44778.2,30439.0,261.17304608273326,283.1593191121346,211.36000000000058,211.2,102.39999999999418,333.0,-65.81099022439957,-497.2144374943056,-84.47999999999882,-372.8
2,flex,44880.6,30157.4,135.51029481260923,651.4653022224918,123.1199999999997,485.1199999999997,102.40000000000146,-281.59999999999854,-125.66275127012403,368.3059831103572,-88.24000000000088,273.91999999999973
2,flex,44781.2,30000.6,144.3196452326773,518.5185049736,117.76000000000059,407.0400000000009,-99.40000000000146,-156.8000000000029,8.809350420068057,-132.9467972488918,-5.359999999999118,-78.07999999999885
2,flex,44701.2,30163.8,105.35729685259503,643.4626329477771,93.43999999999942,472.32000000000045,-80.0,163.20000000000073,-38.96234838008226,124.94412797417715,-24.320000000001173,65.27999999999957
2,flex,44704.4,30157.4,105.45444514038508,641.1669361405363,94.71999999999971,469.75999999999914,3.2000000000043656,-6.399999999997817,0.09714828779004847,-2.2956968072408017,1.2800000000002996,-2.5600000000013097
2,flex,44640.4,30045.4,126.63269719908112,653.3487889327312,110.0800000000003,542.7199999999997,-64.0,-112.0,21.178252058696046,12.181852792194832,15.360000000000582,72.96000000000055
2,flex,44528.4,30167.0,145.0980358234349,477.1113077679544,120.31999999999971,396.8,-112.0,121.59999999999854,18.46533862435379,-176.2374811647768,10.239999999999412,-145.91999999999967
2,flex,44602.0,30291.8,221.00859711774183,542.1521557644479,179.2,496.64000000000016,73.59999999999854,124.79999999999927,75.91056129430692,65.04084799649354,58.88000000000028,99.84000000000015
2,flex,44554.0,29946.2,240.9580876417148,571.9323036863216,217.6,515.8400000000001,-48.0,-345.59999999999854,19.94949052397297,29.780147921873663,38.400000000000006,19.19999999999999
2,flex,44563.6,29987.8,247.99483865656487,608.0336832775288,229.11999999999972,565.7599999999999,9.599999999998545,41.599999999998545,7.0367510148500685,36.101379591207206,11.519999999999726,49.91999999999973
2,flex,44717.4,30115.8,358.5501917441561,612.0622190594406,316.3199999999997,573.4400000000002,153.8000000000029,128.0,110.55535308759124,4.028535781911842,87.19999999999999,7.680000000000291
2,flex,44807.0,30272.6,287.48426043880676,555.326786676235,226.8,426.24000000000086,89.59999999999854,156.79999999999927,-71.06593130534935,-56.73543238320565,-89.5199999999997,-147.1999999999993
2,flex,44685.4,30013.4,331.5633272845619,547.8078495238435,271.5199999999997,523.5199999999998,-121.59999999999854,-259.1999999999971,44.079066845755165,-7.518937152391459,44.719999999999686,97.27999999999889
2,flex,44704.6,30240.6,314.627144411044,374.3589721111341,248.4800000000003,291.8400000000009,19.19999999999709,227.1999999999971,-16.936182873517907,-173.4488774127094,-23.039999999999395,-231.67999999999887
2,flex,44739.8,30195.8,328.61430279264334,342.77362792372236,280.56000000000057,273.9200000000004,35.200000000004366,-44.79999999999927,13.987158381599329,-31.58534418741175,32.08000000000027,-17.92000000000047
2,flex,44666.0,30144.6,235.5860776870151,328.61990201459355,217.6,257.2800000000003,-73.80000000000291,-51.20000000000073,-93.02822510562825,-14.15372590912881,-62.960000000000576,-16.6400000000001
2,flex,44720.4,30240.6,272.5829048194674,434.84691559231806,261.1199999999997,334.08000000000027,54.400000000001455,96.0,36.996827132452296,106.2270135777245,43.519999999999726,76.79999999999995
2,flex,44797.2,30349.4,194.75358790090766,278.71246832509394,168.96000000000058,206.0800000000003,76.79999999999563,108.80000000000291,-77.82931691855973,-156.13444726722412,-92.15999999999914,-127.99999999999997
2,flex,44922.2,30384.6,125.01583899761089,286.6814259766571,102.56000000000058,241.9199999999997,125.0,35.19999999999709,-69.73774890329678,7.968957651563187,-66.39999999999999,35.83999999999941
2,flex,44890.2,30349.4,136.79824560362198,298.23587979964196,121.83999999999942,270.08000000000027,-32.0,-35.19999999999709,11.782406606011094,11.55445382298484,19.279999999998836,28.160000000000565
2,flex,44851.8,30410.2,160.7985074552852,278.6757255305288,152.56000000000057,232.95999999999987,-38.39999999999418,60.79999999999927,24.000261851663225,-19.560154269113184,30.72000000000115,-37.1200000000004
2,flex,44711.0,30301.4,250.71577533154024,167.9923807794211,176.8,145.9199999999997,-140.8000000000029,-108.79999999999927,89.91726787625504,-110.68334475110768,24.23999999999944,-87.04000000000016
2,flex,44797.6,30467.8,305.57526077915395,238.69511934711508,253.9199999999997,188.15999999999985,86.59999999999854,166.39999999999782,54.85948544761371,70.70273856769398,77.11999999999969,42.24000000000015
2,flex,44794.4,30541.4,302.63945545792023,293.5640304940545,250.0800000000003,276.4800000000003,-3.1999999999970896,73.60000000000218,-2.9358053212337154,54.86891114693944,-3.8399999999994066,88.32000000000045
2,flex,44708.0,30464.6,352.5399268169428,405.9840390952347,319.2,337.91999999999973,-86.40000000000146,-76.80000000000291,49.90047135902256,112.4200086011802,69.11999999999969,61.43999999999943
2,flex,44596.0,30170.2,424.5991050392068,725.6595344924996,408.8,629.7599999999999,-112.0,-294.3999999999978,72.059178222264,319.67549539726485,89.60000000000002,291.84000000000015
2,flex,44653.6,30221.4,399.03112660562283,742.620656863205,362.7199999999997,670.7199999999997,57.599999999998545,51.20000000000073,-25.56797843358396,16.961122370705425,-46.080000000000325,40.95999999999981
2,flex,44535.0,30048.6,313.775716077659,663.9980722864015,240.8,542.7199999999997,-118.59999999999854,-172.8000000000029,-85.25541052796382,-78.62258457680355,-121.91999999999967,-128.0
2,flex,44512.4,30045.4,276.49925858793137,659.9762419965332,222.71999999999971,538.8800000000003,-22.599999999998545,-3.1999999999970896,-37.27645748972765,-4.021830289868262,-18.080000000000297,-3.8399999999993497
2,flex,44659.8,30173.4,338.0889823698007,661.8355082646218,286.9600000000006,542.7199999999997,147.40000000000146,128.0,61.58972378186934,1.8592662680886178,64.24000000000089,3.8399999999993497
2,flex,44749.4,30407.0,223.70301741362778,304.42076144704714,215.28000000000029,262.4,89.59999999999854,233.59999999999854,-114.38596495617293,-357.41474681757467,-71.68000000000032,-280.3199999999997
2,flex,44746.2,30272.6,226.11890677302702,349.16677963428367,217.8399999999994,305.91999999999973,-3.2000000000043656,-134.40000000000146,2.4158893593992445,44.74601818723653,2.559999999999121,43.519999999999754
2,flex,44691.8,30394.2,289.61795524398065,346.9307711922339,261.3600000000006,303.35999999999984,-54.39999999999418,121.60000000000218,63.499048470953625,-2.2360084420497515,43.520000000001176,-2.5599999999998886
2,flex,44643.8,30317.4,260.6211042867724,265.9275089191376,203.7600000000006,241.9199999999997,-48.0,-76.79999999999927,-28.996850957208267,-81.00326227309631,-57.599999999999994,-61.44000000000014
2,flex,44531.6,30189.4,140.43589284798077,324.22806787802034,103.68000000000029,295.6800000000003,-112.20000000000437,-128.0,-120.18521143879161,58.30055895888273,-100.0800000000003,53.76000000000059
2,flex,44631.0,30371.8,258.60703780041376,467.2876630085482,207.6,419.84000000000015,99.40000000000146,182.39999999999782,118.171144952433,143.05959513052784,103.9199999999997,124.15999999999985
2,flex,44778.4,30496.6,368.5130119818216,402.0555185544714,326.8800000000003,282.8800000000003,147.40000000000146,124.79999999999927,109.90597418140783,-65.23214445407677,119.28000000000029,-136.95999999999987
2,flex,44836.0,29971.6,303.1296752215207,1059.7304562954228,280.8,855.2800000000003,57.599999999998545,-525.0,-65.38333676030089,657.6749377409513,-46.08000000000027,572.4000000000001
2,flex,44906.6,29901.2,307.5689191061166,1034.545774724308,288.4800000000003,798.9599999999998,70.59999999999854,-70.39999999999782,4.439243884595896,-25.184681571114652,7.680000000000291,-56.320000000000505
2,flex,44916.2,29984.4,295.94418392709895,1039.6960325017665,276.9600000000006,791.3599999999991,9.599999999998545,83.20000000000073,-11.624735179017648,5.150257777458364,-11.519999999999698,-7.600000000000705
2,flex,44820.0,29978.0,309.1711500123391,1033.2136274749653,293.6,788.8,-96.19999999999709,-6.400000000001455,13.226966085240178,-6.482405026801189,16.639999999999418,-2.5599999999991496
2,flex,44733.4,29853.2,203.06806740565216,997.3950872147096,189.6800000000003,738.8799999999995,-86.59999999999854,-124.79999999999927,-106.10308260668697,-35.818540260255645,-103.91999999999973,-49.920000000000414
2,flex,44791.0,30272.6,188.90209104189398,385.94175726407354,170.4,296.9599999999991,57.599999999998545,419.3999999999978,-14.165976363758176,-611.4533299506361,-19.280000000000285,-441.9200000000004
2,flex,44611.6,30051.8,255.71984670749532,636.180603288084,203.5199999999997,471.04000000000013,-179.40000000000146,-220.79999999999927,66.81775566560134,250.2388460240104,33.11999999999969,174.080000000001
2,flex,44592.4,30109.4,261.65748603826813,660.906528943253,218.88000000000028,519.6800000000003,-19.19999999999709,57.60000000000218,5.937639330772811,24.72592565516902,15.360000000000582,48.64000000000016
2,flex,44538.0,29847.0,284.6021784879648,486.7787998670688,262.4,384.0,-54.400000000001455,-262.40000000000146,22.944692449696674,-174.12772907618415,43.5199999999997,-135.6800000000003
2,flex,44435.6,30016.6,232.6556253351827,606.8705298496817,184.3199999999997,519.6800000000003,-102.40000000000146,169.59999999999854,-51.946553152782116,120.09172998261289,-78.08000000000027,135.6800000000003
2,flex,44435.6,30122.2,232.6556253351827,656.6162958683854,184.3199999999997,604.1599999999999,0.0,105.60000000000218,0.0,49.74576601870365,0.0,84.47999999999956
2,flex,44598.8,30323.8,271.98117581875414,392.1012114238036,258.56000000000057,362.2400000000001,163.20000000000437,201.59999999999854,39.32555048357145,-264.51508444458176,74.24000000000086,-241.91999999999973
2,flex,44557.2,30167.0,302.1247424498231,442.5959782917686,291.8399999999994,416.0,-41.60000000000582,-156.79999999999927,30.14356663106895,50.494766867964984,33.279999999998836,53.75999999999988
2,flex,44669.2,30205.4,294.9212776325567,407.6202153965016,284.1600000000006,385.2800000000003,112.0,38.400000000001455,-7.203464817266365,-34.975762895266996,-7.679999999998813,-30.719999999999686
2,flex,44666.0,30096.6,298.3045423722284,310.6802858245266,288.0,254.71999999999971,-3.1999999999970896,-108.80000000000291,3.383264739671688,-96.93992957197497,3.8399999999994066,-130.5600000000006
2,flex,44611.6,30026.2,282.72502542233013,202.7396359863929,254.71999999999971,175.35999999999984,-54.400000000001455,-70.39999999999782,-15.579516949898277,-107.94064983813371,-33.280000000000285,-79.35999999999987
2,flex,44522.0,30167.0,212.0226403002864,352.14542450524067,172.8,288.0,-89.59999999999854,140.79999999999927,-70.70238512204372,149.40578851884777,-81.9199999999997,112.64000000000016
2,flex,44621.2,30227.8,183.1004096124006,290.37245048400484,157.43999999999943,226.55999999999986,99.19999999999709,60.79999999999927,-28.922230687885815,-61.772974021235825,-15.360000000000582,-61.44000000000014
2,flex,44560.4,30285.4,132.5588171338073,243.4104352731544,94.71999999999971,183.04000000000087,-60.799999999995634,57.60000000000218,-50.54159247859329,-46.96201521085044,-62.719999999999715,-43.51999999999899
2,flex,44531.6,30199.0,182.31577002542005,322.54984110982934,131.84000000000088,249.6,-28.80000000000291,-86.40000000000146,49.75695289161274,79.13940583667494,37.12000000000117,66.55999999999912
2,flex,44566.8,30189.4,204.99990243851272,320.73515554089585,157.43999999999943,238.0800000000003,35.200000000004366,-9.599999999998545,22.68413241309267,-1.8146855689334984,25.599999999998545,-11.519999999999698
2,flex,44512.4,30032.6,238.73801540533034,166.1536638178077,222.71999999999971,139.5199999999997,-54.400000000001455,-156.8000000000029,33.738112966817624,-154.58149172308813,65.28000000000029,-98.5600000000006
2,flex,44467.6,30275.8,206.54258640753525,509.43356779865024,186.88000000000028,385.2799999999996,-44.80000000000291,243.20000000000073,-32.19542899779509,343.2799039808425,-35.839999999999435,245.75999999999988
2,flex,44470.8,30298.2,208.2214206070283,507.31859812150253,189.43999999999943,376.32000000000045,3.2000000000043656,22.400000000001455,1.6788341994930533,-2.1149696771477124,2.5599999999991496,-8.959999999999127
2,flex,44602.0,30467.8,204.14896521891146,438.45839027222377,166.4,367.35999999999984,131.1999999999971,169.59999999999854,-4.07245538811685,-68.86020784927877,-23.039999999999424,-8.960000000000605
2,flex,44550.8,30429.4,189.15221383770364,465.11314752422373,136.96000000000058,398.08000000000027,-51.19999999999709,-38.39999999999782,-14.996751381207815,26.654757251999968,-29.43999999999943,30.720000000000425
2,flex,44678.8,30173.4,168.54008425223967,848.1267829752588,162.56000000000057,651.5199999999998,128.0,-256.0,-20.612129585463975,383.0136354510351,25.599999999999994,253.4399999999995
2,flex,44586.0,29987.8,298.3045423722284,679.3804236214859,236.8,523.5200000000004,-92.80000000000291,-185.60000000000218,129.76445811998875,-168.74635935377296,74.23999999999944,-127.99999999999932
2,flex,44662.8,30138.2,335.52728652069834,802.7727947557556,298.23999999999944,623.3599999999999,76.80000000000291,150.40000000000146,37.22274414846993,123.39237113426975,61.43999999999943,99.83999999999946
2,flex,44691.6,30061.4,356.56673989612744,771.2331943063562,321.2800000000003,561.9199999999997,28.799999999995634,-76.79999999999927,21.039453375429105,-31.539600449399472,23.040000000000873,-61.44000000000017
2,flex,44682.0,30147.8,362.03867196751236,787.9021259015042,332.8,587.5200000000004,-9.599999999998545,86.39999999999782,5.471932071384913,16.668931595148024,11.519999999999698,25.600000000000705
2,flex,44621.2,30330.2,344.4127756052116,466.9588418693266,291.8399999999994,343.04000000000013,-60.80000000000291,182.40000000000146,-17.62589636230075,-320.9432840321776,-40.960000000000605,-244.4800000000003
2,flex,44694.8,30365.4,244.41800260997022,470.8025488460761,232.96000000000058,363.5199999999997,73.60000000000582,35.20000000000073,-99.99477299524139,3.843706976749502,-58.87999999999883,20.479999999999563
2,flex,44666.0,30243.8,217.2703385188493,339.16980997737085,198.4,266.2400000000001,-28.80000000000291,-121.60000000000218,-27.14766409112093,-131.63273886870525,-34.56000000000057,-97.27999999999957
2,flex,44531.6,30199.0,170.71332695475726,352.4360934978818,145.9199999999997,320.0,-134.40000000000146,-44.79999999999927,-46.55701156409202,13.266283520510967,-52.4800000000003,53.75999999999988
2,flex,44627.6,30301.4,227.7626835110453,471.01999957529847,203.5199999999997,401.91999999999973,96.0,102.40000000000146,57.049356556288046,118.58390607741666,57.599999999999994,81.91999999999973
2,flex,44733.4,30493.4,302.0487377888191,310.68028582433476,277.91999999999973,218.88000000000028,105.80000000000291,192.0,74.28605427777379,-160.3397137509637,74.40000000000003,-183.03999999999945
2,flex,44823.0,30330.2,266.69683162731366,452.9328427040444,197.2,392.95999999999987,89.59999999999854,-163.20000000000073,-35.35190616150544,142.25255687970963,-80.71999999999974,174.0799999999996
2,flex,44807.0,30093.4,268.43099671991627,614.749900365944,215.2,538.8800000000003,-16.0,-236.79999999999927,1.734165092602609,161.81705766189958,18.0,145.92000000000047
2,flex,44829.4,30195.8,229.54877477317643,634.1654042913335,188.3199999999997,586.2400000000001,22.400000000001455,102.39999999999782,-38.88222194673983,19.415503925389544,-26.88000000000028,47.359999999999786
2,flex,44666.2,30109.4,351.8274577121308,544.0564676573736,307.3600000000006,517.1199999999997,-163.20000000000437,-86.39999999999782,122.27868293895438,-90.10893663395996,119.04000000000087,-69.12000000000046
2,flex,44611.6,30144.6,291.46361694036847,576.2310647648299,263.6800000000003,545.2800000000003,-54.599999999998545,35.19999999999709,-60.36384077176234,32.17459710745629,-43.68000000000029,28.16000000000065
2,flex,44627.6,30269.4,308.03220610863497,525.482483057156,276.4800000000003,405.75999999999914,16.0,124.80000000000291,16.5685891682665,-50.74858170767391,12.800000000000011,-139.52000000000118
2,flex,44602.0,30410.2,302.39576716622156,264.1502602684599,256.0,226.55999999999986,-25.599999999998545,140.79999999999927,-5.636438942413406,-261.3322227886961,-20.480000000000302,-179.19999999999928
2,flex,44611.6,30221.4,297.89232954232403,413.852920733936,244.4800000000003,363.5199999999997,9.599999999998545,-188.79999999999927,-4.5034376238975256,149.70266046547613,-11.519999999999698,136.95999999999984
2,flex,44781.2,30189.4,194.227083590538,392.7796328730834,181.7600000000006,337.91999999999973,169.59999999999854,-32.0,-103.66524595178603,-21.073287860852588,-62.719999999999715,-25.599999999999966
2,flex,44762.0,30045.4,190.39327719198656,287.03839464427375,166.4,238.0800000000003,-19.19999999999709,-144.0,-3.8338063985514452,-105.74123822880966,-15.360000000000582,-99.83999999999943
2,flex,44707.6,30080.6,159.55137103874515,323.912086838514,126.71999999999971,280.3199999999997,-54.400000000001455,35.19999999999709,-30.84190615324141,36.87369219424028,-39.68000000000029,42.23999999999941
2,flex,44726.8,30211.8,153.26630418883454,376.6496515331431,111.36000000000058,336.64000000000016,19.200000000004366,131.20000000000073,-6.285066849910606,52.7375646946291,-15.359999999999133,56.32000000000045
2,flex,44752.4,30320.6,118.2701991191177,225.0489724484008,90.8800000000003,206.0800000000003,25.599999999998545,108.79999999999927,-34.99610506971683,-151.60067908474232,-20.480000000000288,-130.55999999999986
2,flex,44730.0,30291.8,79.03416982606554,223.40492384902905,64.0,200.95999999999987,-22.400000000001455,-28.799999999999272,-39.23602929305217,-1.6440485993717573,-26.880000000000294,-5.120000000000431
2,flex,44694.8,30403.8,94.6031711928942,190.50081364671908,74.23999999999941,176.64000000000016,-35.19999999999709,112.0,15.569001366828658,-32.904110202309965,10.239999999999412,-24.31999999999971
2,flex,44630.8,30266.2,157.87387370812496,305.8302797303868,124.16000000000058,259.84000000000015,-64.0,-137.59999999999854,63.27070251523077,115.32946608366771,49.92000000000117,83.19999999999999
2,flex,44522.0,30141.4,232.74363578818785,262.24385598124917,198.4,212.4800000000003,-108.80000000000291,-124.79999999999927,74.86976208006288,-43.58642374913762,74.23999999999943,-47.35999999999984
2,flex,44477.2,30147.8,231.50844477108012,262.0094654779444,195.8399999999994,208.64000000000016,-44.80000000000291,6.399999999997817,-1.2351910171077236,-0.2343905033047804,-2.560000000000599,-3.8400000000001455
2,flex,44474.0,30256.6,226.27416997969522,370.9240353496992,192.0,337.91999999999973,-3.1999999999970896,108.79999999999927,-5.234274791384905,108.9145698717548,-3.8399999999994066,129.27999999999957
2,flex,44368.4,30205.4,268.6094562738316,341.00651020169397,203.5199999999997,276.4800000000003,-105.59999999999854,-51.19999999999709,42.33528629413638,-29.91752514800521,11.519999999999698,-61.43999999999943
2,flex,44454.8,30298.2,321.9778874391098,268.95233778499545,296.9600000000006,202.24000000000015,86.40000000000146,92.79999999999927,53.368431165278196,-72.05417241669852,93.44000000000091,-74.24000000000015
2,flex,44614.8,30343.0,339.0188195362494,229.86604794961818,311.0399999999994,179.2,160.0,44.79999999999927,17.040932097139603,-39.08628983537727,14.07999999999879,-23.040000000000163
2,flex,44672.4,30288.6,320.5754825308175,292.51570897997465,245.75999999999914,209.9199999999997,57.599999999998545,-54.400000000001455,-18.443337005431886,62.64966103035647,-65.28000000000026,30.719999999999715
2,flex,44650.0,30141.4,311.73321927556043,155.981537369041,236.8,139.5199999999997,-22.400000000001455,-147.1999999999971,-8.84226325525708,-136.53417161093364,-8.959999999999127,-70.4
2,flex,44717.2,30160.6,188.88133841204177,179.77052038656734,143.36000000000058,154.88000000000028,67.19999999999709,19.19999999999709,-122.85188086351866,23.788983017526334,-93.43999999999943,15.360000000000582
2,flex,44656.4,30138.2,197.93493880568315,174.51005701675322,165.11999999999972,138.24000000000015,-60.799999999995634,-22.399999999997817,9.053600393641375,-5.2604633698141186,21.75999999999914,-16.64000000000013
2,flex,44627.6,30218.2,156.30943669639183,261.42256979838305,142.0800000000003,234.24000000000015,-28.80000000000291,80.0,-41.62550210929132,86.91251278162983,-23.039999999999424,96.0
2,flex,44627.6,30349.4,156.30943669639183,219.52093294221123,142.0800000000003,203.5199999999997,0.0,131.20000000000073,0.0,-41.90163685617182,0.0,-30.720000000000454
2,flex,44656.4,30483.8,183.43565629360745,203.2440897051765,165.11999999999972,170.24000000000015,28.80000000000291,134.39999999999782,27.126219597215623,-16.27684323703474,23.039999999999424,-33.279999999999546
2,flex,44678.8,30490.2,154.5967658122543,201.21868700475844,138.2399999999994,162.55999999999986,22.400000000001455,6.400000000001455,-28.83889048135316,-2.0254027004180557,-26.880000000000308,-7.680000000000291
2,flex,44707.6,30535.0,131.39497707425244,129.19442712457717,113.9199999999997,108.8,28.799999999995634,44.79999999999927,-23.201788738001852,-72.02425988018126,-24.31999999999971,-53.75999999999986
2,flex,44646.8,30022.8,132.86745274803775,992.0355638786656,106.23999999999941,787.5200000000004,-60.799999999995634,-512.2000000000007,1.4724756737853113,862.8411367540884,-7.680000000000291,678.7200000000005
2,flex,44637.2,29987.6,131.70634001603574,976.2334966595607,99.83999999999942,773.4400000000009,-9.60000000000582,-35.20000000000073,-1.1611127320020103,-15.802067219104856,-6.3999999999999915,-14.079999999999586
2,flex,44589.2,30029.2,61.885054742379445,1010.6790588510116,60.16000000000058,790.0799999999996,-48.0,41.60000000000218,-69.82128527365629,34.445562191450904,-39.67999999999884,16.639999999998736
2,flex,44691.6,30026.0,169.50940976847633,1009.4010105007703,130.55999999999912,788.8,102.40000000000146,-3.2000000000007276,107.62435502609688,-1.2780483502413063,70.39999999999854,-1.2799999999996317
2,flex,44723.6,29958.8,173.686614338009,996.0916423703504,152.3199999999997,761.9200000000004,32.0,-67.20000000000073,4.177204569532677,-13.309368130419898,21.760000000000588,-26.87999999999954
2,flex,44717.2,30346.2,181.41488362417218,341.5765799933344,157.43999999999943,271.35999999999984,-6.400000000001455,387.40000000000146,7.728269286163169,-654.515062377016,5.11999999999972,-490.56000000000057
2,flex,44666.0,30362.2,227.85258392204446,343.66867765329823,198.4,284.15999999999985,-51.19999999999709,16.0,46.43770029787228,2.0920976599638266,40.960000000000576,12.800000000000011
2,flex,44650.0,30154.2,232.30325008478104,229.95512605726861,211.2,221.44000000000014,-16.0,-208.0,4.4506661627365816,-113.71355159602962,12.799999999999983,-62.719999999999715
2,flex,44618.0,30240.6,185.76544350323155,359.42709970194596,172.8,325.1199999999997,-32.0,86.39999999999782,-46.53780658154949,129.47197364467735,-38.39999999999998,103.67999999999958
2,flex,44573.2,30291.8,159.16582547842637,342.6242256467197,119.03999999999942,284.15999999999985,-44.80000000000291,51.20000000000073,-26.59961802480518,-16.802874055226255,-53.76000000000059,-40.959999999999866
2,flex,44560.4,30247.0,167.6873280840322,390.3475374586699,129.28000000000029,332.8,-12.799999999995634,-44.79999999999927,8.521502605605832,47.72331181195017,10.240000000000862,48.64000000000016
2,flex,44496.4,30045.4,260.48078623961794,487.36745890545654,203.5199999999997,417.2800000000003,-64.0,-201.59999999999854,92.79345815558574,97.01992144678667,74.23999999999941,84.4800000000003
2,flex,44573.2,30215.0,316.686848479979,549.1520736553764,264.9600000000006,492.8,76.79999999999563,169.59999999999854,56.206062240361064,61.784614749919854,61.44000000000091,75.5199999999997
2,flex,44496.4,29968.6,283.0869830988517,478.56853218743225,212.4800000000003,433.91999999999973,-76.79999999999563,-246.40000000000146,-33.5998653811273,-70.58354146794414,-52.4800000000003,-58.88000000000028
2,flex,44515.6,30013.4,291.639229185748,514.6531259012366,235.5199999999997,487.6800000000003,19.19999999999709,44.80000000000291,8.552246086896275,36.084593713804395,23.039999999999395,53.76000000000056
2,flex,44557.2,30144.6,290.724887136063,518.7159530995838,232.96000000000058,494.08000000000027,41.599999999998545,131.1999999999971,-0.9143420496849899,4.062827198347122,-2.559999999999121,6.399999999999977
2,flex,44701.2,30231.0,153.93297242674655,419.06562731868144,125.43999999999942,390.4,144.0,86.40000000000146,-136.79191470931644,-99.65032578090234,-107.52000000000116,-103.68000000000029
2,flex,44675.6,30119.0,119.1328670019525,333.32266649599455,97.28000000000029,300.8,-25.599999999998545,-112.0,-34.80010542479404,-85.74296082268688,-28.15999999999913,-89.59999999999997
2,flex,44717.2,30375.0,65.8920329040536,345.39253031876643,61.439999999999415,281.6,41.599999999998545,256.0,-53.24083409789891,12.069863822771879,-35.84000000000087,-19.19999999999999
2,flex,44701.2,30259.8,80.57394119742332,378.00656078967484,74.23999999999941,322.55999999999983,-16.0,-115.20000000000073,14.68190829336973,32.6140304709084,12.799999999999997,40.95999999999981
2,flex,44573.2,30186.2,298.71618637116654,374.8783269275385,231.68000000000174,286.7200000000004,-128.0,-73.59999999999854,218.14224517374322,-3.1282338621363124,157.44000000000233,-35.83999999999941
2,flex,44618.0,30442.2,340.01411735383084,487.0311694337584,256.0,464.64000000000016,44.80000000000291,256.0,41.2979309826643,112.15284250621988,24.31999999999826,177.91999999999973
2,flex,44573.2,30426.2,326.24309954416077,496.5055488108773,231.68000000000174,477.44000000000017,-44.80000000000291,-16.0,-13.77101780967007,9.474379377118908,-24.31999999999826,12.800000000000011
2,flex,44614.8,30221.4,349.869918683787,467.96649452710363,264.9600000000006,368.6400000000009,41.60000000000582,-204.79999999999927,23.626819139626207,-28.53905428377368,33.279999999998864,-108.79999999999927
2,flex,44605.2,30282.2,350.74686028583625,444.949615125091,272.6399999999994,344.32000000000045,-9.60000000000582,60.79999999999927,0.8769416020492713,-23.01687940201265,7.679999999998813,-24.320000000000448
2,flex,44691.6,30397.4,217.4116832190777,445.7773435246996,203.5199999999997,391.6800000000003,86.40000000000146,115.20000000000073,-133.33517706675855,0.8277283996085885,-69.11999999999972,47.35999999999984
2,flex,44547.6,30151.0,202.0312847069565,272.28220654318164,154.88000000000028,224.0,-144.0,-246.40000000000146,-15.38039851212119,-173.49513698151793,-48.63999999999942,-167.6800000000003
2,flex,44570.0,30295.0,211.0544953323667,378.49385728175804,179.2,345.6,22.400000000001455,144.0,9.0232106254102,106.2116507385764,24.31999999999971,121.60000000000002
2,flex,44550.8,30397.4,183.65881410840146,316.23383753152376,157.43999999999943,263.6800000000003,-19.19999999999709,102.40000000000146,-27.395681223965255,-62.26001975023428,-21.76000000000056,-81.91999999999973
2,flex,44541.2,30381.4,184.49325190973485,326.1175248280682,163.8399999999994,280.3199999999997,-9.60000000000582,-16.0,0.8344378013333937,9.883687296544451,6.399999999999977,16.639999999999418
2,flex,44566.8,30160.6,175.3880269568015,437.1954254108254,143.36000000000058,357.1199999999997,25.60000000000582,-220.8000000000029,-9.105224952933355,111.0779005827572,-20.479999999998824,76.80000000000001
2,flex,44576.4,30279.0,160.1918849382116,433.71511387079,135.6800000000003,352.0,9.599999999998545,118.40000000000146,-15.19614201858991,-3.480311540035416,-7.680000000000291,-5.11999999999972
2,flex,44534.8,30135.0,149.88849188548252,338.20230631968246,111.36000000000058,256.0,-41.599999999998545,-144.0,-10.303393052729064,-95.51280755110753,-24.31999999999971,-96.0
2,flex,44502.8,30099.8,99.8687138184529,318.29948162078745,74.23999999999941,229.12000000000043,-32.0,-35.20000000000073,-50.01977806702962,-19.902824698895017,-37.12000000000117,-26.87999999999957
2,flex,44515.6,30199.0,103.49415442526342,388.37507644034997,84.48000000000029,307.2,12.799999999995634,99.20000000000073,3.625440606810514,70.07559481956253,10.240000000000876,78.07999999999956
2,flex,44499.6,30346.2,102.49995122071013,199.17268889079764,81.9199999999997,183.04000000000013,-16.0,147.20000000000073,-0.9942032045532869,-189.20238754955233,-2.560000000000585,-124.15999999999985
2,flex,44554.0,30247.0,62.37948380715957,218.9136816191434,57.6,166.4,54.400000000001455,-99.20000000000073,-40.12046741355056,19.74099272834576,-24.319999999999702,-16.64000000000013
2,flex,44582.8,30339.8,59.351158370690456,235.89014392315298,48.63999999999942,213.75999999999985,28.80000000000291,92.79999999999927,-3.0283254364691174,16.976462304009573,-8.960000000000583,47.35999999999984
2,flex,44579.6,30253.4,56.88444427216098,327.21466959770925,46.08000000000029,286.7199999999997,-3.2000000000043656,-86.39999999999782,-2.4667140985294793,91.32452567455627,-2.5599999999991283,72.95999999999984
2,flex,44608.4,30192.6,77.46379799536352,272.0188228783603,56.31999999999971,238.0800000000003,28.80000000000291,-60.80000000000291,20.579353723202544,-55.195846719348935,10.23999999999942,-48.63999999999939
2,flex,44662.8,30183.0,56.70414446841691,270.2058474571705,53.76000000000058,230.4,54.400000000001455,-9.599999999998545,-20.759653526946614,-1.812975421189833,-2.5599999999991283,-7.680000000000291
2,flex,44749.2,29987.8,150.2296908080309,542.340999741039,113.91999999999825,464.64000000000016,86.39999999999418,-195.20000000000073,93.52554633961401,272.13515228386854,60.15999999999767,234.24000000000015
2,flex,44758.8,29984.6,143.96444005292435,538.9506842003574,110.08000000000175,462.08000000000027,9.60000000000582,-3.2000000000007276,-6.265250755106564,-3.3903155406816268,-3.8399999999965075,-2.5599999999998886
2,flex,44685.2,30141.4,251.23566625853888,570.6058534574998,175.36000000000058,444.1599999999991,-73.60000000000582,156.8000000000029,107.27122620561454,31.65516925714246,65.27999999999884,-17.920000000001153
2,flex,44637.2,30115.8,263.76231724872986,563.8178429245229,220.1600000000006,433.9200000000004,-48.0,-25.600000000002183,12.526650990190973,-6.788010532976955,44.80000000000001,-10.239999999998702
2,flex,44640.4,30250.2,265.1562558189306,645.607434901364,222.71999999999971,501.7599999999999,3.2000000000043656,134.40000000000146,1.3939385702007598,81.78959197684105,2.559999999999121,67.83999999999946
2,flex,44634.0,30499.8,255.79992181371875,239.55158108440475,217.6,202.24000000000015,-6.400000000001455,249.59999999999854,-9.356334005211863,-406.0558538169592,-5.11999999999972,-299.51999999999975
2,flex,44650.0,30400.6,260.7558244793482,294.26083667395704,230.4,261.1199999999997,16.0,-99.20000000000073,4.955902665629424,54.7092555895523,12.800000000000011,58.87999999999957
2,flex,44650.0,30157.4,260.7558244793482,492.1762286010347,230.4,363.5199999999997,0.0,-243.1999999999971,0.0,197.91539192707768,0.0,102.39999999999998
2,flex,44720.4,30221.4,251.07257914758196,515.7462942183972,188.15999999999912,414.7199999999997,70.40000000000146,64.0,-9.683245331766216,23.570065617362502,-42.24000000000089,51.19999999999999
2,flex,44643.6,29997.4,283.2677884972185,410.49901339703365,263.6800000000003,350.7199999999997,-76.80000000000291,-224.0,32.195209349636514,-105.24728082136357,75.52000000000118,-64.0
2,flex,44595.6,30010.2,234.62787558175933,419.9687607428334,225.28000000000029,360.95999999999987,-48.0,12.799999999999272,-48.63991291545915,9.46974734579976,-38.400000000000006,10.24000000000018
2,flex,44563.6,30106.2,220.21952683652944,470.99825902002556,199.6800000000003,437.7599999999999,-32.0,96.0,-14.408348745229887,51.02949827719215,-25.599999999999994,76.80000000000001
2,flex,44720.4,30269.4,220.21952683598812,286.14513799790944,184.3199999999997,241.9199999999997,156.8000000000029,163.20000000000073,-5.413198778114747e-10,-184.8531210221161,-15.360000000000582,-195.84000000000017
2,flex,44710.8,30131.8,216.42033176148686,290.724887135653,176.63999999999942,259.84000000000015,-9.599999999998545,-137.60000000000218,-3.799195074501256,4.5797491377435335,-7.680000000000291,17.920000000000442
2,flex,44784.4,30272.6,139.70483169818718,247.16763542210091,99.84000000000087,212.4800000000003,73.59999999999854,140.79999999999927,-76.71550006329969,-43.55725171355206,-76.79999999999855,-47.35999999999984
2,flex,44778.0,30307.8,141.30817386124556,266.4660578762065,102.4,240.64000000000016,-6.400000000001455,35.20000000000073,1.603342163058386,19.298422454105577,2.5599999999991354,28.159999999999854
2,flex,44797.2,30103.0,121.17821586541143,381.7266037362967,94.71999999999825,339.2,19.19999999999709,-204.79999999999927,-20.129957995834133,115.26054586009019,-7.680000000001755,98.55999999999983
2,flex,44790.8,30266.2,108.7058416073456,522.6296585537319,84.48000000000175,469.7599999999999,-6.399999999994179,163.20000000000073,-12.472374258065827,140.90305481743525,-10.239999999996499,130.5599999999999
2,flex,44768.4,30330.2,119.98933285846205,485.66259893054007,93.44000000000088,392.95999999999987,-22.400000000001455,64.0,11.283491251116445,-36.96705962319186,8.959999999999127,-76.80000000000001
2,flex,44685.2,30221.4,214.0414913053749,502.5732185462275,149.7600000000006,423.6800000000003,-83.20000000000437,-108.79999999999927,94.05215844691286,16.910619615687438,56.31999999999971,30.720000000000425
2,flex,44579.6,30071.0,284.5302092925411,503.5299395269125,250.88000000000028,403.2,-105.59999999999854,-150.40000000000146,70.48871798716618,0.9567209806849633,101.11999999999969,-20.480000000000302
2,flex,44576.4,30227.8,283.26778849679766,419.8468292129089,248.3199999999997,328.95999999999987,-3.1999999999970896,156.79999999999927,-1.2624207957434237,-83.68311031400356,-2.5600000000005707,-74.24000000000012
2,flex,44470.8,30051.8,186.97422282137364,185.32393261540224,163.8399999999994,163.84000000000015,-105.59999999999854,-176.0,-96.29356567542402,-234.52289659750667,-84.4800000000003,-165.11999999999972
2,flex,44512.4,30151.0,241.08554498304355,310.7461986896182,212.4800000000003,262.4,41.599999999998545,99.20000000000073,54.111322161669904,125.42226607421597,48.640000000000896,98.55999999999983
2,flex,44672.6,30359.0,319.9022350661146,420.0419026716831,267.6800000000003,364.8,160.1999999999971,208.0,78.81669008307105,109.29570398206488,55.19999999999999,102.40000000000003
2,flex,44784.6,30346.2,217.02313240804602,438.4583902720878,174.3199999999997,375.04000000000013,112.0,-12.799999999999272,-102.87910265806858,18.416487600404707,-93.36000000000058,10.240000000000123
2,flex,44739.8,30087.0,253.61419518600968,698.2309073651611,219.03999999999942,588.8,-44.799999999995634,-259.2000000000007,36.59106277796366,259.7725170930733,44.719999999999715,213.75999999999982
2,flex,44778.2,30275.8,223.17024891386524,797.5899698466566,179.43999999999943,739.8400000000001,38.39999999999418,188.79999999999927,-30.443946272144444,99.35906248149547,-39.599999999999994,151.0400000000002
2,flex,44717.4,30192.6,230.0918077632733,774.2148539004563,183.28000000000029,673.2800000000003,-60.799999999995634,-83.20000000000073,6.921558849408058,-23.375115946200253,3.840000000000856,-66.55999999999983
2,flex,44618.0,29799.0,101.19288512538814,780.6950749171871,83.2,678.4,-99.40000000000146,-393.59999999999854,-128.89892263788516,6.480221016730752,-100.08000000000028,5.1199999999996635
2,flex,44691.8,30064.6,230.824955322962,916.8767856152107,175.68000000000174,852.4800000000002,73.80000000000291,265.59999999999854,129.63207019757385,136.1817106980236,92.48000000000174,174.08000000000027
2,flex,44727.0,30269.4,204.39373767303223,756.2839678320695,161.6,615.6800000000003,35.19999999999709,204.8000000000029,-26.431217649929778,-160.5928177831412,-14.080000000001746,-236.79999999999995
2,flex,44775.0,30035.8,212.45423036492429,653.4114783197966,194.8,482.55999999999983,48.0,-233.60000000000218,8.060492691892051,-102.87248951227286,33.20000000000002,-133.12000000000046
2,flex,44848.6,30023.0,191.3861018990274,649.7654961599975,171.6800000000003,467.2,73.59999999999854,-12.799999999999272,-21.068128465896876,-3.645982159799132,-23.11999999999972,-15.359999999999843
2,flex,44835.8,30384.6,206.82785112201898,452.3899203120972,187.03999999999942,427.5199999999997,-12.799999999995634,361.59999999999854,15.441749222991575,-197.37557584790028,15.359999999999133,-39.68000000000029
2,flex,44730.0,30205.4,158.39191898578665,318.4924488899823,153.6,240.64000000000087,-105.80000000000291,-179.1999999999971,-48.43593213623234,-133.8974714221149,-33.43999999999943,-186.87999999999883
2,flex,44803.6,30330.2,180.6229221336675,343.81762607513707,174.0800000000003,317.44000000000017,73.59999999999854,124.79999999999927,22.23100314788084,25.325177185154757,20.480000000000302,76.7999999999993
2,flex,44787.6,30483.8,174.27518469407107,271.9811758194116,161.28000000000029,259.84000000000015,-16.0,153.59999999999854,-6.347737439596415,-71.83645025572548,-12.800000000000011,-57.60000000000002
2,flex,44688.4,30227.8,199.7374276386963,700.0909655181486,180.4800000000003,567.0400000000002,-99.19999999999709,-256.0,25.462242944625217,428.10978969873696,19.200000000000017,307.20000000000005
2,flex,44624.4,30010.2,267.2718466276819,653.8031508030095,231.6800000000003,559.3599999999999,-64.0,-217.59999999999854,67.5344189889856,-46.28781471513901,51.19999999999999,-7.680000000000291
2,flex,44563.6,30090.2,298.2358798000417,687.7692636342096,280.3199999999997,623.3599999999999,-60.80000000000291,80.0,30.96403317235979,33.96611283120001,48.63999999999942,64.0
2,flex,44448.4,29891.8,202.53750269966991,639.9519981998203,151.04000000000087,559.3599999999999,-115.19999999999709,-198.40000000000146,-95.69837710037177,-47.81726543438924,-129.27999999999884,-64.0
2,flex,44362.0,30029.4,75.04665215717488,832.5290625556963,70.4,724.4800000000002,-86.40000000000146,137.60000000000218,-127.49085054249504,192.57706435587602,-80.64000000000087,165.12000000000035
2,flex,44448.4,30173.4,222.0717001328944,672.0457127308663,170.24000000000086,609.2800000000003,86.40000000000146,144.0,147.02504797571953,-160.48334982483004,99.84000000000086,-115.19999999999993
2,flex,44643.8,30279.0,352.85373740368976,632.6781172128714,325.3600000000006,524.8,195.40000000000146,105.59999999999854,130.78203727079537,-39.367595517994914,155.11999999999972,-84.48000000000036
2,flex,44711.0,30087.0,309.9896772473313,670.398090689423,271.6,563.2,67.19999999999709,-192.0,-42.86406015635845,37.71997347655167,-53.76000000000056,38.40000000000009
2,flex,44695.0,30403.8,325.9410989732725,759.7153151016598,284.4,706.5599999999998,-16.0,316.7999999999993,15.951421725941202,89.31722441223678,12.799999999999955,143.3599999999998
2,flex,44682.2,30167.0,338.5240907238651,600.373217257399,294.6399999999994,460.8,-12.80000000000291,-236.79999999999927,12.582991750592555,-159.34209784426082,10.23999999999944,-245.75999999999982
2,flex,44592.6,30365.4,335.1725525760475,549.5807856902949,270.3199999999997,449.2800000000003,-89.59999999999854,198.40000000000146,-3.351538147817564,-50.79243156710413,-24.31999999999971,-11.519999999999698
2,flex,44592.6,30416.6,335.1725525760475,548.0881680898657,270.3199999999997,442.8800000000003,0.0,51.19999999999709,0.0,-1.4926176004291847,0.0,-6.400000000000034
2,flex,44634.2,30535.0,350.29610331885215,396.4643741876437,320.23999999999944,313.6,41.599999999998545,118.40000000000146,15.123550742804639,-151.62379390222196,49.91999999999973,-129.28000000000026
2,flex,44739.8,30384.6,326.2590381886757,189.4767531916705,289.43999999999943,180.4800000000003,105.60000000000582,-150.40000000000146,-24.037065130176472,-206.98762099597323,-30.80000000000001,-133.11999999999972
2,flex,44819.8,30448.6,257.83126265020644,149.61497251313085,193.43999999999943,112.64000000000087,80.0,64.0,-68.42777553846923,-39.861780678539645,-96.0,-67.83999999999943
2,flex,44855.0,30346.2,209.0684098564502,173.92228149354222,156.4,168.95999999999987,35.19999999999709,-102.39999999999782,-48.76285279375625,24.307308980411364,-37.039999999999424,56.319999999999
2,flex,44842.2,30365.4,186.65947605259393,194.2797982289113,141.03999999999942,184.3199999999997,-12.80000000000291,19.200000000000728,-22.408933803856257,20.357516735369074,-15.360000000000582,15.359999999999843
2,flex,44768.6,30387.8,237.77939355671734,175.6797085611583,199.9199999999997,157.44000000000014,-73.59999999999854,22.399999999997817,51.11991750412341,-18.600089667752997,58.88000000000028,-26.87999999999957
2,flex,44749.4,30141.4,232.30634946073067,474.16182891491593,176.88000000000028,369.91999999999973,-19.19999999999709,-246.39999999999782,-5.4730440959866655,298.48212035375764,-23.039999999999424,212.4799999999996
2,flex,44656.6,30026.2,303.3384907986613,449.4149085199449,251.11999999999972,360.95999999999987,-92.80000000000291,-115.20000000000073,71.03214133793065,-24.746920394971028,74.23999999999944,-8.959999999999866
2,flex,44576.6,30154.2,355.4577893365252,535.8829722990478,315.1199999999997,463.35999999999984,-80.0,128.0,52.11929853786387,86.46806377910286,64.0,102.39999999999998
2,flex,44464.4,30077.4,212.40866272310743,492.3842402025986,184.3199999999997,401.91999999999973,-112.19999999999709,-76.79999999999927,-143.04912661341777,-43.498732096449146,-130.8,-61.44000000000011
2,flex,44566.8,30179.8,298.3731891435696,570.6776322934325,266.23999999999944,483.84000000000015,102.40000000000146,102.39999999999782,85.96452642046219,78.29339209083383,81.91999999999973,81.92000000000041
2,flex,44499.6,30432.6,280.54347256727414,337.2320269490673,235.5199999999997,302.08000000000027,-67.20000000000437,252.79999999999927,-17.829716576295482,-233.44560534436516,-30.719999999999743,-181.75999999999988
2,flex,44611.6,30512.6,276.6843689115985,230.8883712969894,235.5199999999997,206.0800000000003,112.0,80.0,-3.8591036556756535,-106.3436556520779,0.0,-95.99999999999997
2,flex,44726.8,30291.8,187.79392961356436,382.8516161648195,163.8399999999994,291.84000000000015,115.20000000000437,-220.79999999999927,-88.89043929803412,151.96324486783013,-71.68000000000029,85.75999999999985
2,flex,44774.8,30423.0,180.28244506815423,441.9013464563695,133.11999999999824,364.8,48.0,131.20000000000073,-7.511484545410127,59.04973029154996,-30.720000000001164,72.95999999999987
2,flex,44589.2,30301.4,303.1398357201958,406.11013284568264,271.3600000000006,314.8800000000003,-185.60000000000582,-121.59999999999854,122.85739065204154,-35.79121361068684,138.24000000000234,-49.91999999999973
2,flex,44573.2,30192.6,312.455052768113,406.1101328459762,290.56000000000057,312.3199999999997,-16.0,-108.80000000000291,9.315217047917201,2.935394149972126e-10,19.19999999999999,-2.5600000000005707
2,flex,44608.4,29994.2,346.96028591154175,530.7950263519942,318.7199999999997,426.2400000000001,35.200000000004366,-198.39999999999782,34.50523314342877,124.68489350601806,28.159999999999116,113.92000000000041
2,flex,44506.0,30243.8,357.19798431695466,594.666427503761,332.8,508.15999999999985,-102.40000000000146,249.59999999999854,10.237698405412914,63.871401151766804,14.080000000000325,81.91999999999973
2,flex,44400.4,29786.0,318.1707717560909,785.9307857566388,240.64000000000087,674.8,-105.59999999999854,-457.7999999999993,-39.027212560863745,191.26435825287774,-92.15999999999914,166.6400000000001
2,flex,44413.2,29802.0,305.1598925156797,794.6163854339071,235.51999999999825,687.6,12.799999999995634,16.0,-13.010879240411214,8.685599677268328,-5.120000000002619,12.800000000000068
2,flex,44464.4,29987.6,313.63265136114063,912.9196240634378,276.4800000000003,836.0800000000003,51.200000000004366,185.59999999999854,8.47275884546093,118.30323862953071,40.960000000002054,148.48000000000025
2,flex,44272.4,30166.8,198.45160619083796,846.4704129501317,154.88000000000028,633.9200000000004,-192.0,179.20000000000073,-115.18104517030267,-66.44921111330609,-121.60000000000002,-202.15999999999985
2,flex,44419.6,30154.0,352.37797888098504,835.9009510701469,312.3199999999997,628.8,147.1999999999971,-12.799999999999272,153.92637269014708,-10.569461879984829,157.43999999999943,-5.120000000000459
2,flex,44583.0,30499.8,443.23628010362074,299.74282310005435,400.8,290.55999999999983,163.40000000000146,345.7999999999993,90.8583012226357,-536.1581279700926,88.4800000000003,-338.2400000000001
2,flex,44631.0,30445.4,401.76908791007725,356.9972548913533,348.4,334.08000000000027,48.0,-54.39999999999782,-41.4671921935435,57.25443179129894,-52.400000000000034,43.52000000000044
2,flex,44551.0,30199.0,434.8544584111969,380.5175423026169,412.4,294.4,-80.0,-246.40000000000146,33.085370501119655,23.52028741126361,64.0,-39.68000000000029
2,flex,44736.6,30157.4,371.4122238160207,389.50717580028504,357.2800000000003,327.6800000000003,185.59999999999854,-41.599999999998545,-63.44223459517622,8.989633497668137,-55.11999999999966,33.280000000000314
2,flex,44563.8,29978.2,407.0186236520498,203.99843136655318,389.3600000000006,143.35999999999984,-172.79999999999563,-179.20000000000073,35.60639983602914,-185.50874443373186,32.08000000000027,-184.32000000000045
2,flex,44493.2,29978.2,324.82758503593345,203.99843136655318,304.6399999999994,143.35999999999984,-70.60000000000582,0.0,-82.19103861611637,0.0,-84.72000000000116,0.0
2,flex,44595.6,30160.6,347.2552951360275,423.51368336826215,334.08000000000027,357.1199999999997,102.40000000000146,182.39999999999782,22.427710100094032,219.51525200170897,29.44000000000085,213.75999999999988
2,flex,44643.6,30659.8,305.86376052109364,829.0655945098617,276.4800000000003,700.1599999999999,48.0,499.2000000000007,-41.391534614933846,405.5519111415996,-57.599999999999966,343.04000000000013
2,flex,44534.8,30429.4,264.3440182787423,1099.0311369564645,232.96000000000058,884.4800000000002,-108.79999999999563,-230.39999999999782,-41.519742242351356,269.96554244660274,-43.519999999999726,184.3200000000004
2,flex,44624.4,30224.6,175.73798678690434,1257.5470726775939,161.28000000000029,1082.8800000000003,89.59999999999854,-204.8000000000029,-88.60603149183794,158.51593572112938,-71.68000000000029,198.4000000000001
2,flex,44656.4,29975.0,211.68429322935023,1336.972101429187,199.6800000000003,1248.0,32.0,-249.59999999999854,35.94630644244589,79.42502875159312,38.400000000000006,165.11999999999966
2,flex,44509.2,29763.8,259.6539235219145,1254.5632546826955,202.2399999999994,994.5599999999998,-147.20000000000437,-211.20000000000073,47.96963029256429,-82.40884674649146,2.559999999999121,-253.44000000000017
2,flex,44595.6,29591.0,297.3762599806933,928.8823391581822,254.71999999999971,787.2,86.40000000000146,-172.79999999999927,37.722336458778784,-325.68091552451335,52.4800000000003,-207.3599999999998
2,flex,44701.2,29968.6,311.79890955579236,930.1822617100808,271.3600000000006,837.1199999999997,105.59999999999854,377.59999999999854,14.422649575099058,1.2999225518985895,16.640000000000867,49.91999999999962
2,flex,44746.0,30419.8,308.0986854888419,847.3295462805569,243.2,771.8400000000001,44.80000000000291,451.2000000000007,-3.7002240669504545,-82.85271542952387,-28.160000000000593,-65.27999999999952
3,flex,44906.0,29383.0,0.0,0.0,0.0,0.0,44906.0,29383.0,0.0,0.0,0.0,0.0
3,flex,44826.0,29767.0,80.0,384.0,80.0,384.0,-80.0,384.0,80.0,384.0,80.0,384.0
3,flex,44890.0,30279.0,111.6183975281232,789.0449923800289,96.0,682.6666666666666,64.0,512.0,31.618397528123197,405.04499238002893,16.0,298.66666666666663
3,flex,44806.0,29754.75,174.67684448718438,1136.4234191092685,156.0,972.25,-84.0,-524.25,63.058446959061186,347.37842672923955,60.0,289.58333333333337
3,flex,44646.8,29734.8,354.6662656637186,1017.2308292615113,291.8399999999994,793.7599999999999,-159.1999999999971,-19.950000000000728,179.98942117653422,-119.19258984775718,135.8399999999994,-178.49000000000012
3,flex,44576.4,30058.0,330.32929025452347,1106.882107543527,244.4800000000003,911.6,-70.40000000000146,323.2000000000007,-24.336975409195134,89.6512782820156,-47.359999999999104,117.84000000000015
3,flex,44589.2,29955.6,337.8084664427753,1117.1770853361184,259.8399999999994,956.3199999999997,12.799999999995634,-102.40000000000146,7.479176188251813,10.294977792591453,15.359999999999104,44.719999999999686
3,flex,44589.2,29731.6,337.8084664427753,919.3222721113947,259.8399999999994,687.5199999999998,0.0,-224.0,0.0,-197.85481322472367,0.0,-268.79999999999995
3,flex,44704.6,29984.6,399.07272520206175,563.1090835708774,338.08000000000027,485.1199999999997,115.40000000000146,253.0,61.26425875928646,-356.2131885405173,78.24000000000086,-202.40000000000003
3,flex,44877.4,30256.6,196.58240002570548,658.578347655051,157.6800000000003,600.3199999999997,172.8000000000029,272.0,-202.49032517635627,95.46926408417357,-180.39999999999998,115.19999999999999
3,flex,44893.4,30103.0,171.23037113758227,547.7517685959581,144.88000000000028,448.0,16.0,-153.59999999999854,-25.352028888123215,-110.82657905909286,-12.800000000000011,-152.3199999999997
3,flex,44874.2,30279.0,184.38264560493909,510.4977962734021,160.2399999999994,390.4,-19.200000000004366,176.0,13.152274467356818,-37.25397232255597,15.359999999999133,-57.60000000000002
3,flex,44746.2,30381.4,250.4399329182266,531.8742708573235,205.03999999999942,433.91999999999973,-128.0,102.40000000000146,66.0572873132875,21.37647458392138,44.80000000000001,43.519999999999754
3,flex,44656.4,30519.0,160.82984797608165,318.5567453374299,120.31999999999971,268.8,-89.79999999999563,137.59999999999854,-89.61008494214494,-213.3175255198936,-84.71999999999971,-165.11999999999972
3,flex,44582.8,30464.6,124.51248933297855,243.62068877679715,112.63999999999942,225.28000000000029,-73.59999999999854,-54.400000000001455,-36.317358643103105,-74.93605656063275,-7.680000000000291,-43.519999999999726
3,flex,44630.8,30445.4,172.1469139999447,264.1890232388813,151.03999999999942,248.3199999999997,48.0,-19.19999999999709,47.634424666966154,20.568334462084152,38.400000000000006,23.039999999999424
3,flex,44579.6,30368.6,177.76568847813377,286.5027748557305,158.71999999999971,280.3199999999997,-51.200000000004366,-76.80000000000291,5.618774478189067,22.313751616849174,7.680000000000291,32.0
3,flex,44646.8,30221.4,150.22969080644387,269.56082801468364,131.8399999999994,208.64000000000087,67.20000000000437,-147.1999999999971,-27.5359976716899,-16.941946841046843,-26.880000000000308,-71.67999999999884
3,flex,44666.0,30282.2,159.35871485440538,277.38666153947327,147.2,247.04000000000013,19.19999999999709,60.79999999999927,9.129024047961508,7.82583352478963,15.360000000000582,38.39999999999927
3,flex,44624.4,30083.8,213.61048663354242,227.04219872104355,197.11999999999972,183.04000000000013,-41.599999999998545,-198.40000000000146,54.251771779137044,-50.34446281842972,49.91999999999973,-64.0
3,flex,44522.0,30211.8,190.93035379450635,360.8203985364662,179.2,316.15999999999985,-102.40000000000146,128.0,-22.680132839036077,133.77819981542265,-17.91999999999973,133.11999999999972
3,flex,44608.4,30259.8,235.0639062036608,363.36560101372004,222.71999999999971,323.84000000000015,86.40000000000146,48.0,44.13355240915445,2.545202477253838,43.519999999999726,7.680000000000291
3,flex,44679.0,30381.4,300.1719507216617,343.5494724199261,279.2,254.71999999999971,70.59999999999854,121.60000000000218,65.1080445180009,-19.816128593793962,56.480000000000274,-69.12000000000043
3,flex,44522.2,30218.2,396.7389065874796,453.61058188708824,365.0399999999994,424.95999999999987,-156.8000000000029,-163.20000000000073,96.56695586581793,110.06110946716217,85.8399999999994,170.24000000000015
3,flex,44669.4,30442.2,421.9818005552686,444.0281072183595,393.1199999999997,354.55999999999983,147.20000000000437,224.0,25.242893967788973,-9.582474668728764,28.080000000000325,-70.40000000000003
3,flex,44727.0,30122.2,394.87618312585994,627.5101274082506,324.0,578.5599999999998,57.599999999998545,-320.0,-27.105617429408653,183.4820201898911,-69.11999999999972,224.0
3,flex,44624.6,30106.2,405.57100488096114,621.8547740428589,350.8800000000003,565.7599999999999,-102.40000000000146,-16.0,10.694821755101202,-5.6553533653916475,26.88000000000028,-12.799999999999955
3,flex,44589.2,30163.8,371.72376840931173,673.0962486896373,322.56000000000057,611.8400000000001,-35.400000000001455,57.599999999998545,-33.84723647164941,51.24147464677833,-28.31999999999971,46.08000000000027
3,flex,44704.4,30359.0,232.6556253346703,627.9668781074175,206.0800000000003,499.2,115.20000000000437,195.20000000000073,-139.06814307464143,-45.129370582219735,-116.48000000000027,-112.64000000000016
3,flex,44672.4,29920.6,192.69208598116094,845.1029759739822,167.6800000000003,794.8800000000003,-32.0,-438.40000000000146,-39.96353935350936,217.13609786656468,-38.400000000000006,295.68000000000035
3,flex,44582.8,30122.2,270.6602298081485,759.0410792572522,239.36000000000058,577.2799999999995,-89.59999999999854,201.60000000000218,77.96814382698753,-86.06189671672996,71.68000000000029,-217.60000000000082
3,flex,44656.4,30240.6,254.51569696191538,820.4490477781694,216.3199999999997,647.6800000000003,73.59999999999854,118.39999999999782,-16.14453284623309,61.407968520917166,-23.040000000000873,70.40000000000077
3,flex,44608.4,29997.4,227.0872959895962,781.5864891359996,177.9199999999997,670.7199999999997,-48.0,-243.1999999999971,-27.428400972319167,-38.8625586421698,-38.400000000000006,23.039999999999395
3,flex,44717.4,30083.8,301.19999999969923,862.9564067785288,233.11999999999972,739.8400000000001,109.0,86.39999999999782,74.11270401010302,81.36991764252923,55.20000000000002,69.12000000000046
3,flex,44762.4,30419.8,336.02892732593546,502.2471104945113,275.6800000000003,431.35999999999984,45.0,336.0,34.828927326236226,-360.70929628401757,42.56000000000057,-308.4800000000003
3,flex,44903.2,30378.2,185.48681893906507,528.0872655158109,164.1600000000006,464.64000000000016,140.79999999999563,-41.599999999998545,-150.54210838687038,25.840155021299665,-111.5199999999997,33.280000000000314
3,flex,44788.0,30154.2,351.7220493516086,501.6350864921536,302.4,432.64000000000016,-115.19999999999709,-224.0,166.2352304125435,-26.452179023657322,138.23999999999938,-32.0
3,flex,44807.2,30371.8,346.24234287595283,465.6412352874157,279.3600000000006,405.7599999999999,19.19999999999709,217.59999999999854,-5.479706475655746,-35.993851204737894,-23.039999999999395,-26.88000000000028
3,flex,44749.4,30211.8,312.5147036537942,329.05586151896836,233.11999999999972,272.64000000000016,-57.799999999995634,-160.0,-33.72763922215864,-136.58537376844737,-46.24000000000086,-133.11999999999972
3,flex,44707.6,30295.0,274.641293326682,400.5755858760645,215.04000000000087,364.8,-41.80000000000291,83.20000000000073,-37.8734103271122,71.51972435709615,-18.079999999998847,92.15999999999985
3,flex,44675.6,30301.4,258.5077174863635,395.6370053470551,202.24000000000086,359.6800000000003,-32.0,6.400000000001455,-16.133575840318485,-4.938580529009414,-12.800000000000011,-5.11999999999972
3,flex,44874.2,30403.8,154.17444665205483,298.3731891441689,121.83999999999942,277.7599999999999,198.59999999999854,102.39999999999782,-104.33327083430868,-97.26381620288618,-80.40000000000144,-81.92000000000041
3,flex,44727.0,30186.2,384.94571045804327,371.1724127678658,286.8,290.55999999999983,-147.1999999999971,-217.59999999999854,230.77126380598844,72.79922362369689,164.9600000000006,12.799999999999955
3,flex,44707.8,30272.6,381.91119386559933,418.77230089886405,279.11999999999824,359.6800000000003,-19.19999999999709,86.39999999999782,-3.0345165924439357,47.59988813099824,-7.680000000001769,69.12000000000046
3,flex,44592.6,30240.6,396.1835938050636,383.81328794103115,344.4800000000003,334.08000000000027,-115.20000000000437,-32.0,14.272399939464265,-34.9590129578329,65.36000000000206,-25.600000000000023
3,flex,44544.6,30163.8,389.1671106352646,454.73790253294476,321.5199999999997,426.2400000000001,-48.0,-76.79999999999927,-7.016483169799017,70.92461459191361,-22.960000000000605,92.15999999999985
3,flex,44512.4,30243.8,340.25496322584155,500.8178910542853,282.8800000000003,490.2400000000001,-32.19999999999709,80.0,-48.91214740942303,46.07998852134057,-38.63999999999942,64.0
3,flex,44624.4,30314.2,231.110017091242,430.6824352118557,193.28000000000029,405.7599999999999,112.0,70.40000000000146,-109.14494613459954,-70.13545584242962,-89.6,-84.48000000000025
3,flex,44627.6,30064.6,232.65562533569508,510.4576769920118,197.11999999999972,465.91999999999973,3.1999999999970896,-249.60000000000218,1.5456082444530637,79.77524178015608,3.839999999999435,60.159999999999854
