Iteration,Gesture,AVG POT VALUE 1,AVG POT VALUE 2,STD DEV 1,STD DEV 2,MAD 1,MAD 2,DELTA AVG POT VALUE 1,DELTA AVG POT VALUE 2,DELTA STD DEV 1,DELTA STD DEV 2,DELTA MAD 1,DELTA MAD 2
1,rotate,42154.0,31575.0,0.0,0.0,0.0,0.0,42154.0,31575.0,0.0,0.0,0.0,0.0
1,rotate,42098.0,30871.0,56.0,704.0,56.0,704.0,-56.0,-704.0,56.0,704.0,56.0,704.0
1,rotate,42372.666666666664,30785.666666666668,391.11919183615447,587.3450623119335,366.22222222222143,526.2222222222226,274.66666666666424,-85.33333333333212,335.11919183615447,-116.65493768806652,310.22222222222143,-177.77777777777737
1,rotate,42418.0,30775.0,347.7010209936117,508.9911590587797,320.0,400.0,45.33333333333576,-10.66666666666788,-43.41817084254279,-78.35390325315376,-46.22222222222143,-126.22222222222263
1,rotate,42448.4,30755.8,316.88079777704866,456.872148417877,280.3199999999997,327.67999999999955,30.400000000001455,-19.200000000000728,-30.820223216563022,-52.11901064090273,-39.68000000000029,-72.32000000000045
1,rotate,42365.2,30490.2,420.82129223719323,236.1070943447968,380.1600000000006,226.55999999999986,-83.20000000000437,-265.59999999999854,103.94049446014458,-220.7650540730802,99.84000000000088,-101.11999999999969
1,rotate,42346.0,30339.8,437.0080090799252,493.40222942340915,403.2,407.04000000000013,-19.19999999999709,-150.40000000000146,16.186716842731983,257.29513507861236,23.039999999999395,180.48000000000027
1,rotate,42237.2,30432.6,336.137114880705,573.5592733102035,316.1600000000006,481.2800000000003,-108.80000000000291,92.79999999999927,-100.87089419922023,80.15704388679433,-87.0399999999994,74.24000000000018
1,rotate,42259.6,30381.4,359.42709970194596,554.6810254551366,334.08000000000027,440.3199999999997,22.400000000001455,-51.19999999999709,23.289984821240978,-18.87824785506689,17.919999999999675,-40.960000000000605
1,rotate,42182.8,30528.6,324.19648363283505,694.2303940335898,272.6399999999994,574.7199999999997,-76.79999999999563,147.1999999999971,-35.23061606911091,139.54936857845325,-61.44000000000085,134.39999999999998
1,rotate,42342.8,30525.4,255.2789846420874,695.5566403967126,221.43999999999943,577.2800000000003,160.0,-3.1999999999970896,-68.91749899074765,1.3262463631227774,-51.19999999999999,2.5600000000006276
1,rotate,42406.8,30768.6,175.3880269568015,424.6003297220307,156.1600000000006,382.7199999999997,64.0,243.1999999999971,-79.89095768528591,-270.9563106746819,-65.27999999999884,-194.56000000000063
1,rotate,42314.0,30845.4,265.61927640874376,501.5534268648896,230.4,474.8800000000003,-92.80000000000291,76.80000000000291,90.23124945194226,76.9530971428589,74.23999999999941,92.1600000000006
1,rotate,42333.2,30643.8,292.48070021845297,747.4175272229293,253.43999999999943,636.1599999999999,19.19999999999709,-201.60000000000218,26.86142380970921,245.86410035803965,23.039999999999424,161.27999999999957
1,rotate,42416.4,29840.4,297.89232954192386,1378.8673032601657,261.1199999999997,1121.5199999999998,83.20000000000437,-803.3999999999978,5.4116293234708905,631.4497760372365,7.680000000000291,485.3599999999999
1,rotate,42336.4,29702.8,308.032206108248,1367.3028047949138,276.4800000000003,1075.36,-80.0,-137.60000000000218,10.13987656632412,-11.564498465251972,15.360000000000582,-46.159999999999854
1,rotate,42294.8,29856.4,328.12095330822,1499.6772452764342,309.76000000000056,1259.6800000000003,-41.599999999998545,153.60000000000218,20.088747199972033,132.37444048152042,33.28000000000026,184.3200000000004
1,rotate,42291.6,29642.0,331.87563935916904,1320.602589729419,312.3199999999997,1002.4,-3.2000000000043656,-214.40000000000146,3.754686050949033,-179.07465554701525,2.5599999999991496,-257.2800000000003
1,rotate,42259.6,29827.6,290.0548913570543,1349.5462348508408,273.91999999999973,1085.6800000000003,-32.0,185.59999999999854,-41.820748002114726,28.943645121421923,-38.39999999999998,83.28000000000031
1,rotate,42221.2,30627.8,252.45546141889838,703.0102132971707,227.8399999999994,616.9599999999998,-38.400000000001455,800.2000000000007,-37.599429938155936,-646.5360215536701,-46.080000000000325,-468.7200000000005
1,rotate,42211.6,30362.0,256.3198002499077,1163.400876740268,235.5199999999997,859.2,-9.599999999998545,-265.7999999999993,3.86433883100932,460.3906634430972,7.680000000000291,242.24000000000024
1,rotate,42266.0,29907.6,246.62846551017714,1112.2020679715429,217.6,989.6800000000003,54.400000000001455,-454.40000000000146,-9.691334739730564,-51.19880876872503,-17.919999999999703,130.48000000000025
1,rotate,42368.4,30423.0,165.53621960094148,1672.6717550075246,126.71999999999971,1408.4,102.40000000000146,515.4000000000015,-81.09224590923566,560.4696870359817,-90.88000000000028,418.7199999999998
1,rotate,42227.6,31082.4,202.2845520546783,2125.0796314491226,186.88000000000028,1929.5199999999998,-140.8000000000029,659.4000000000015,36.74833245373682,452.4078764415981,60.160000000000565,521.1199999999997
1,rotate,42134.8,30247.0,203.74729446007308,2603.5669378757966,188.1600000000006,2471.2,-92.79999999999563,-835.4000000000015,1.4627424053947777,478.48730642667397,1.2800000000003138,541.6800000000001
1,rotate,42173.2,30685.6,209.69158304562728,2400.9775175957147,200.96000000000058,2120.3199999999997,38.39999999999418,438.59999999999854,5.9442885855542045,-202.58942028008187,12.799999999999983,-350.8800000000001
1,rotate,42134.8,31425.0,194.49051390673108,2376.2754049141595,170.2399999999994,2088.4,-38.39999999999418,739.4000000000015,-15.201069138896202,-24.702112681555263,-30.720000000001164,-31.919999999999618
1,rotate,42154.0,31626.6,223.31323292620237,2536.019053556204,192.0,2249.6800000000003,19.19999999999709,201.59999999999854,28.822719019471293,159.74364864204472,21.760000000000588,161.2800000000002
1,rotate,42346.0,30628.0,314.675706084776,2504.23984474332,268.8,2217.6,192.0,-998.5999999999985,91.36247315857361,-31.779208812884008,76.80000000000001,-32.08000000000038
1,rotate,42461.2,30727.2,244.8365985719385,2373.779551685458,200.96000000000058,2138.2400000000002,115.19999999999709,99.20000000000073,-69.83910751283747,-130.46029305786215,-67.83999999999943,-79.35999999999967
1,rotate,42458.0,30202.2,247.25048028255137,2659.612633448716,204.8,2558.2400000000002,-3.1999999999970896,-525.0,2.4138817106128556,285.8330817632582,3.839999999999435,420.0
1,rotate,42496.4,29469.2,206.0462084095746,2319.296565771627,158.71999999999971,1802.7200000000005,38.400000000001455,-733.0,-41.20427187297676,-340.31606767708945,-46.0800000000003,-755.5199999999998
1,rotate,42499.6,29053.0,206.294546704602,1523.3404084445472,161.28000000000029,1179.2,3.1999999999970896,-416.2000000000007,0.2483382950273949,-795.9561573270796,2.5600000000005707,-623.5200000000004
1,rotate,42387.6,29568.2,111.58781295425665,1740.6588867437567,107.51999999999971,1618.2400000000002,-112.0,515.2000000000007,-94.70673375034535,217.31847829920957,-53.76000000000057,439.0400000000002
1,rotate,42403.6,30544.4,133.32906659879123,1797.0611119268779,126.71999999999971,1659.1199999999997,16.0,976.2000000000007,21.74125364453458,56.40222518312112,19.200000000000003,40.87999999999943
1,rotate,42358.8,30941.4,195.2786726699873,1290.9372719074936,162.56000000000057,1182.7199999999998,-44.799999999995634,397.0,61.94960607119606,-506.12384001938426,35.840000000000856,-476.39999999999986
1,rotate,42422.8,30528.4,225.45811140851663,1954.7525265362717,202.2399999999994,1678.3199999999997,64.0,-413.0,30.179438738529342,663.8152546287781,39.67999999999884,495.5999999999999
1,rotate,42336.4,29984.4,252.09014260787197,1875.6174023504545,231.6800000000003,1566.8800000000003,-86.40000000000146,-544.0,26.63203119935534,-79.13512418581718,29.44000000000088,-111.43999999999937
1,rotate,42358.8,30006.8,252.65818807157032,1891.6406001140826,234.2399999999994,1593.7599999999998,22.400000000001455,22.399999999997817,0.5680454636983541,16.023197763628104,2.559999999999121,26.879999999999427
1,rotate,42333.2,30842.2,232.39139398916836,3271.2267668261616,213.7600000000006,2596.2400000000002,-25.60000000000582,835.4000000000015,-20.266794082401958,1379.586166712079,-20.479999999998824,1002.4800000000005
1,rotate,42438.8,30634.2,192.6389368734993,3364.7085698467245,151.03999999999942,2762.6400000000003,105.60000000000582,-208.0,-39.752457115669074,93.4818030205629,-62.720000000001164,166.4000000000001
1,rotate,42486.8,30458.2,258.07161796640816,3562.4876364697698,194.56000000000057,2903.44,48.0,-176.0,65.43268109290887,197.7790666230453,43.52000000000115,140.79999999999973
1,rotate,42448.4,30282.0,320.89474909979253,3642.4859093756318,235.5199999999997,3044.4,-38.400000000001455,-176.20000000000073,62.82313113338438,79.998272905862,40.95999999999913,140.96000000000004
1,rotate,42397.2,30557.4,342.6242256472416,3766.474192132466,296.9600000000006,3374.88,-51.200000000004366,275.40000000000146,21.729476547449053,123.98828275683445,61.44000000000091,330.48
1,rotate,42266.0,28653.0,407.5448441582255,2237.829662865345,371.2,1678.8,-131.1999999999971,-1904.4000000000015,64.9206185109839,-1528.644529267121,74.23999999999938,-1696.0800000000002
1,rotate,42141.2,28944.2,390.53112552033696,2321.673741075614,304.6399999999994,2028.2400000000002,-124.80000000000291,291.2000000000007,-17.01371863788853,83.84407821026889,-66.56000000000057,349.4400000000003
1,rotate,42038.8,29962.0,202.7396359858049,1994.051453699239,181.7600000000006,1750.4,-102.39999999999418,1017.7999999999993,-187.79148953453205,-327.6222873763752,-122.87999999999883,-277.84000000000015
1,rotate,42160.4,31815.4,256.91835278928954,3396.1250035886433,225.28000000000029,2682.4800000000005,121.59999999999854,1853.4000000000015,54.17871680348463,1402.0735498894044,43.5199999999997,932.0800000000004
1,rotate,42221.2,31194.4,282.86986407203847,3447.196518912131,271.3600000000006,2590.0800000000004,60.799999999995634,-621.0,25.951511282748925,51.0715153234878,46.0800000000003,-92.40000000000009
1,rotate,42358.8,31370.4,211.6359137758808,3258.841364657071,165.11999999999824,2476.2400000000007,137.60000000000582,176.0,-71.23395029615767,-188.35515425505992,-106.24000000000234,-113.83999999999969
1,rotate,42397.2,31172.0,137.7859209073139,3353.901847102867,111.36000000000058,2608.0,38.39999999999418,-198.40000000000146,-73.84999286856689,95.06048244579597,-53.75999999999766,131.7599999999993
1,rotate,42506.0,32362.8,249.3126551139198,4151.224609678463,166.4,4036.96,108.80000000000291,1190.7999999999993,111.52673420660588,797.3227625755958,55.039999999999424,1428.96
1,rotate,42518.8,29664.4,250.62354238899624,4278.372382109801,181.7600000000006,3039.6800000000003,12.80000000000291,-2698.399999999998,1.3108872750764533,127.14777243133813,15.360000000000582,-997.2799999999997
1,rotate,42598.8,29270.6,280.5069696096854,4349.665026183068,232.96000000000058,3194.559999999999,80.0,-393.8000000000029,29.883427220689185,71.29264407326718,51.19999999999999,154.87999999999874
1,rotate,42563.6,29661.2,300.28892753529163,4317.632147369654,263.6800000000003,3208.6400000000003,-35.200000000004366,390.6000000000022,19.781957925606207,-32.032878813413845,30.719999999999715,14.080000000001291
1,rotate,42522.0,30342.8,364.01318657420177,4456.375765125742,313.6,3668.16,-41.599999999998545,681.5999999999985,63.724259038910134,138.7436177560876,49.91999999999973,459.5199999999995
1,rotate,42390.8,29148.8,310.4824632723347,3008.4413506000105,258.56000000000057,2610.6400000000003,-131.1999999999971,-1194.0,-53.530723301867056,-1447.9344145257314,-55.03999999999945,-1057.5199999999995
1,rotate,42362.0,30397.2,298.99030084611053,1612.9119504796035,224.0,1236.64,-28.80000000000291,1248.4000000000015,-11.492162426224183,-1395.529400120407,-34.56000000000057,-1374.0000000000002
1,rotate,42269.2,30336.4,178.28336994806372,1715.8111317974115,136.96000000000058,1285.2800000000002,-92.80000000000291,-60.79999999999927,-120.7069308980468,102.89918131780792,-87.03999999999942,48.6400000000001
1,rotate,42336.4,30218.0,240.87307861177464,1749.0397365411684,190.71999999999971,1417.2,67.20000000000437,-118.40000000000146,62.58970866371092,33.22860474375693,53.75999999999914,131.91999999999985
1,rotate,42442.0,29667.6,129.5901230800582,1284.4827130016786,96.0,976.8800000000003,105.59999999999854,-550.4000000000015,-111.28295553171645,-464.5570235394898,-94.71999999999971,-440.3199999999997
1,rotate,42438.8,30189.4,134.01850618403313,2104.5195746297695,98.56000000000058,1531.2800000000002,-3.1999999999970896,521.8000000000029,4.428383103974937,820.036861628091,2.560000000000585,554.3999999999999
1,rotate,42435.6,30272.6,134.47616889305178,2115.8747221894196,101.1199999999997,1631.1199999999997,-3.2000000000043656,83.19999999999709,0.45766270901864914,11.35514755965005,2.559999999999121,99.83999999999946
1,rotate,42464.4,30941.6,137.86021906198613,1555.9418498131865,110.0800000000003,1181.759999999999,28.80000000000291,669.0,3.384050168934351,-559.932872376233,8.96000000000059,-449.3600000000006
1,rotate,42458.0,30868.0,128.79751550380277,1629.5896415969194,102.4,1211.2,-6.400000000001455,-73.59999999999854,-9.062703558183358,73.64779178373283,-7.680000000000291,29.440000000000964
1,rotate,42470.8,31095.2,131.31702098208365,1548.5797880638554,112.63999999999942,1120.3200000000004,12.80000000000291,227.20000000000073,2.519505478280877,-81.00985353306396,10.239999999999412,-90.87999999999965
1,rotate,42483.6,30794.2,110.66634538196458,1036.543178068271,97.28000000000029,714.2400000000001,12.799999999995634,-301.0,-20.650675600119072,-512.0366099955845,-15.359999999999133,-406.08000000000027
1,rotate,42480.4,30202.0,112.955920606057,1599.00494058022,101.1199999999997,1404.4,-3.1999999999970896,-592.2000000000007,2.289575224092431,562.461762511949,3.8399999999994208,690.16
1,rotate,42333.2,30499.6,287.18105787164404,1798.0775956560053,220.1600000000006,1642.4800000000002,-147.20000000000437,297.59999999999854,174.22513726558702,199.0726550757854,119.04000000000089,238.08000000000015
1,rotate,42256.4,30490.0,244.66924612619758,1805.4931736232136,184.3199999999997,1654.0,-76.79999999999563,-9.599999999998545,-42.511811745446465,7.4155779672082645,-35.840000000000884,11.519999999999754
1,rotate,42192.4,30605.2,205.54863171466533,1851.0745419890359,156.15999999999912,1746.1599999999999,-64.0,115.20000000000073,-39.120614411532245,45.5813683658223,-28.160000000000593,92.15999999999985
1,rotate,42230.8,28764.8,239.7652184943777,3225.150067826308,183.03999999999942,2629.84,38.400000000001455,-1840.4000000000015,34.21658677971237,1374.075525837272,26.880000000000308,883.6800000000003
1,rotate,42269.2,29901.2,275.5346802130968,3646.5243945433804,221.43999999999943,3013.7599999999998,38.39999999999418,1136.4000000000015,35.7694617187191,421.37432671707256,38.400000000000006,383.9199999999996
1,rotate,42365.2,29853.2,151.92419162291623,3617.0008791815376,144.63999999999942,2975.3599999999997,96.0,-48.0,-123.61048859018058,-29.523515361842783,-76.80000000000001,-38.40000000000009
1,rotate,42250.0,30278.8,320.479640539064,3626.0498838267667,249.6,2835.9200000000005,-115.19999999999709,425.59999999999854,168.55544891614778,9.04900464522916,104.96000000000058,-139.43999999999915
1,rotate,42275.6,30000.4,320.73515554145337,3570.0768395091814,240.64000000000087,2724.559999999999,25.599999999998545,-278.3999999999978,0.25551500238935887,-55.97304431758539,-8.959999999999127,-111.36000000000149
1,rotate,42256.4,31543.2,309.02789518101685,1117.6404430763798,232.95999999999913,941.0400000000002,-19.19999999999709,1542.7999999999993,-11.707260360436521,-2452.4363964328013,-7.6800000000017405,-1783.5199999999988
1,rotate,42154.0,31066.2,264.4602049459383,584.8563584333498,224.0,426.2400000000001,-102.40000000000146,-477.0,-44.567690235078544,-532.78408464303,-8.959999999999127,-514.8000000000001
1,rotate,42166.8,30931.8,271.79286230447013,407.09232368096383,234.2399999999994,317.44000000000017,12.80000000000291,-134.40000000000146,7.332657358531833,-177.76403475238595,10.239999999999412,-108.79999999999995
1,rotate,42285.2,30621.4,115.11107679185874,616.6625008868187,92.16000000000058,568.3199999999997,118.39999999999418,-310.3999999999978,-156.68178551261138,209.57017720585492,-142.07999999999885,250.87999999999954
1,rotate,42336.4,30519.0,168.29688054124523,717.8278345118364,133.11999999999972,691.2,51.200000000004366,-102.40000000000146,53.185803749386494,101.16533362501764,40.95999999999914,122.88000000000034
1,rotate,42307.6,30653.4,165.5362196016616,831.1133737342566,126.71999999999971,798.7199999999997,-28.80000000000291,134.40000000000146,-2.76066093958363,113.2855392224202,-6.400000000000006,107.51999999999964
1,rotate,42310.8,30429.4,161.08432574154753,841.3992155926142,124.16000000000058,814.0800000000003,3.2000000000043656,-224.0,-4.451893860114069,10.285841858357571,-2.5599999999991354,15.360000000000582
1,rotate,42333.2,29827.6,171.8492362517921,1042.057119355787,151.03999999999942,745.1199999999997,22.39999999999418,-601.8000000000029,10.764910510244562,200.65790376317295,26.879999999998844,-68.9600000000006
1,rotate,42400.4,30941.4,196.37678070462957,2379.8321453413396,177.9199999999997,1966.4800000000002,67.20000000000437,1113.800000000003,24.527544452837475,1337.7750259855525,26.88000000000028,1221.3600000000006
1,rotate,42333.2,30739.6,177.99595501072827,2519.064318353162,157.43999999999943,2127.9199999999996,-67.20000000000437,-201.8000000000029,-18.3808256939013,139.2321730118224,-20.480000000000274,161.43999999999937
1,rotate,42243.6,29865.8,275.38598366709886,2817.773191724272,231.6800000000003,2174.16,-89.59999999999854,-873.7999999999993,97.39002865637059,298.7088733711098,74.24000000000086,46.24000000000024
1,rotate,42304.4,29507.2,268.2279627476806,2898.077597304805,216.3199999999997,2286.7200000000003,60.80000000000291,-358.59999999999854,-7.158020919418277,80.30440558053306,-15.360000000000582,112.5600000000004
1,rotate,42323.6,30941.2,281.6363612891636,3631.9014524075355,231.6800000000003,3528.6400000000003,19.19999999999709,1434.0,13.408398541482995,733.8238551027307,15.360000000000582,1241.92
1,rotate,42288.4,29456.0,254.314451024542,3048.3364643687296,203.5199999999997,2409.6,-35.19999999999709,-1485.2000000000007,-27.32191026462158,-583.564988038806,-28.160000000000593,-1119.0400000000004
1,rotate,42378.0,29344.0,299.8452934432149,3086.093193667367,224.0,2454.4,89.59999999999854,-112.0,45.53084241867293,37.75672929863731,20.480000000000302,44.80000000000018
1,rotate,42557.2,29750.6,132.86745274983215,2906.3110363483383,119.03999999999942,2291.7599999999993,179.1999999999971,406.59999999999854,-166.97784069338277,-179.78215731902856,-104.96000000000058,-162.64000000000078
1,rotate,42582.8,29978.0,109.17582149860424,2815.232494839458,98.56000000000058,2200.8,25.60000000000582,227.40000000000146,-23.691631251227918,-91.07854150888033,-20.47999999999884,-90.95999999999913
1,rotate,42592.4,29094.6,108.32838962951233,1151.600034734276,94.71999999999971,922.0800000000003,9.599999999998545,-883.4000000000015,-0.8474318690919063,-1663.632460105182,-3.8400000000008703,-1278.7199999999998
1,rotate,42486.8,29408.4,302.46348539922536,952.0074789621615,235.51999999999825,661.8400000000008,-105.59999999999854,313.8000000000029,194.13509576971302,-199.59255577211457,140.79999999999853,-260.23999999999944
1,rotate,42374.8,29815.0,307.16666485785055,701.5958950848789,285.43999999999943,620.8,-112.0,406.59999999999854,4.703179458625186,-250.41158387728262,49.92000000000118,-41.04000000000087
1,rotate,42390.8,30147.8,325.9290720383072,742.8826017615852,298.23999999999944,668.1599999999999,16.0,332.7999999999993,18.76240718045665,41.28670667670633,12.800000000000011,47.3599999999999
1,rotate,42413.2,30106.2,337.80846644242234,793.9870024124419,316.1600000000006,706.5599999999998,22.39999999999418,-41.599999999998545,11.879394404115146,51.104400650856746,17.920000000001153,38.39999999999998
1,rotate,42326.8,29555.6,333.6911146550834,888.4979684839493,309.76000000000056,764.3199999999997,-86.39999999999418,-550.6000000000022,-4.117351787338919,94.51096607150737,-6.400000000000034,57.75999999999988
1,rotate,42448.4,29443.6,257.3166143099084,939.0692413235996,235.5199999999997,853.9199999999997,121.59999999999854,-112.0,-76.37450034517502,50.571272839650305,-74.24000000000086,89.60000000000002
1,rotate,42429.2,30115.8,282.14492729841675,1896.647083671595,258.56000000000057,1660.56,-19.200000000004366,672.2000000000007,24.828312988508344,957.5778423479954,23.040000000000873,806.6400000000002
1,rotate,42285.2,30016.6,239.76521849586928,1865.5970197231795,227.8399999999994,1541.5199999999998,-144.0,-99.20000000000073,-42.37970880254747,-31.050063948415527,-30.720000000001164,-119.04000000000019
1,rotate,42278.8,30154.2,230.62211515746785,1816.0836324354643,220.1600000000006,1431.44,-6.399999999994179,137.60000000000218,-9.143103338401431,-49.513387287715204,-7.679999999998813,-110.0799999999997
1,rotate,42310.8,30896.8,224.31977175375485,1662.8207840895057,202.2399999999994,1483.7599999999998,32.0,742.5999999999985,-6.302343403712996,-153.26284834595867,-17.92000000000118,52.31999999999971
1,rotate,42275.6,31069.6,203.7975465997008,1470.4344392049777,174.0800000000003,1345.5199999999998,-35.200000000004366,172.79999999999927,-20.52222515405404,-192.38634488452794,-28.159999999999116,-138.24
1,rotate,42352.4,30093.2,171.01298196282877,1126.310862950352,129.28000000000029,897.4400000000002,76.80000000000291,-976.3999999999978,-32.784564636872034,-344.12357625462573,-44.80000000000001,-448.0799999999996
1,rotate,42477.2,30010.0,148.51585774009644,1115.369355863766,138.2399999999994,805.2,124.79999999999563,-83.20000000000073,-22.49712422273234,-10.941507086585943,8.959999999999127,-92.24000000000012
1,rotate,42467.6,30042.0,141.52540408017643,1110.2219597900018,126.71999999999971,792.4,-9.599999999998545,32.0,-6.990453659920007,-5.147396073764185,-11.519999999999698,-12.800000000000068
1,rotate,42480.4,29846.8,131.0047327389722,782.063015363815,116.48000000000029,569.8400000000001,12.80000000000291,-195.20000000000073,-10.520671341204235,-328.15894442618685,-10.239999999999426,-222.55999999999983
1,rotate,42464.4,29677.2,151.6543438216059,886.7415406982707,129.28000000000029,773.3599999999999,-16.0,-169.59999999999854,20.649611082633697,104.67852533445568,12.799999999999997,203.51999999999975
1,rotate,42387.6,29962.2,229.1074856917808,704.3199273057257,193.28000000000029,469.7599999999999,-76.80000000000291,285.0,77.4531418701749,-182.42161339254494,64.0,-303.6
1,rotate,42294.8,30026.2,171.25232845101726,718.4267255607346,143.36000000000058,522.2400000000001,-92.79999999999563,64.0,-57.85515724076353,14.106798255008812,-49.9199999999997,52.480000000000246
1,rotate,42317.2,30103.0,207.23551819227228,724.2187514832465,170.2399999999994,544.0,22.39999999999418,76.79999999999927,35.98318974125502,5.792025922511925,26.87999999999883,21.759999999999877
1,rotate,42342.8,29914.2,222.48631418549638,557.3330781498319,200.96000000000058,436.47999999999956,25.60000000000582,-188.79999999999927,15.250795993224102,-166.88567333341462,30.720000000001164,-107.52000000000044
1,rotate,42419.6,30275.8,242.5675988259773,210.9088902821832,225.28000000000029,170.24000000000015,76.79999999999563,361.59999999999854,20.08128464048093,-346.4241878676487,24.31999999999971,-266.23999999999944
1,rotate,42557.2,30279.0,175.09585946109524,207.13666985839046,143.36000000000058,166.4,137.59999999999854,3.2000000000007276,-67.47173936488207,-3.7722204237927315,-81.9199999999997,-3.8400000000001455
1,rotate,42496.4,30407.0,291.1120746379469,341.51661745810236,226.55999999999912,307.2,-60.799999999995634,128.0,116.01621517685163,134.3799475997119,83.19999999999854,140.79999999999998
1,rotate,42445.2,30199.0,279.04293576486856,574.1302987998664,220.1600000000006,473.6,-51.200000000004366,-208.0,-12.069138873078316,232.61368134176405,-6.399999999998528,166.40000000000003
1,rotate,42454.8,30250.2,282.32633600117333,574.7007569160832,227.8399999999994,476.15999999999985,9.60000000000582,51.20000000000073,3.2834002363047716,0.5704581162167415,7.679999999998813,2.5599999999998317
1,rotate,42464.4,30416.6,288.9938407645028,753.5031784936816,235.5199999999997,632.3199999999997,9.599999999998545,166.39999999999782,6.667504763329475,178.80242157759847,7.680000000000291,156.15999999999985
1,rotate,42339.6,30400.6,281.9997163121846,762.1510611421654,257.2800000000003,645.1199999999997,-124.80000000000291,-16.0,-6.994124452318204,8.647882648483801,21.760000000000616,12.799999999999955
1,rotate,42448.4,30397.4,194.2797982289113,759.8635667011984,152.3199999999997,641.2800000000003,108.80000000000291,-3.1999999999970896,-87.71991808327331,-2.287494440967066,-104.9600000000006,-3.8399999999993497
1,rotate,42419.6,30663.0,208.02461392885206,511.0992075908318,186.88000000000028,428.8,-28.80000000000291,265.59999999999854,13.744815699940773,-248.76435911036657,34.56000000000057,-212.4800000000003
1,rotate,42406.8,30246.8,200.1983016902408,1098.7091334834668,176.63999999999942,902.6400000000001,-12.799999999995634,-416.2000000000007,-7.826312238611251,587.6099258926349,-10.240000000000862,473.8400000000001
1,rotate,42320.4,30202.0,149.61497251233408,1051.7691761978842,135.6800000000003,866.8,-86.40000000000146,-44.79999999999927,-50.583329177906734,-46.93995728558252,-40.95999999999913,-35.840000000000146
1,rotate,42432.4,30179.6,156.6366496057785,1057.8808250460131,139.5199999999997,893.6800000000003,112.0,-22.400000000001455,7.021677093444424,6.11164884812888,3.8399999999994066,26.880000000000337
1,rotate,42448.4,30045.2,163.98243808338478,994.1397084916542,152.3199999999997,786.1599999999999,16.0,-134.39999999999782,7.345788477606277,-63.74111655435888,12.800000000000011,-107.52000000000044
1,rotate,42502.8,30029.2,137.41382754272868,985.7059196332173,101.11999999999826,773.3599999999999,54.400000000001455,-16.0,-26.568610540656096,-8.43378885843697,-51.20000000000145,-12.799999999999955
1,rotate,42426.0,30397.4,204.89997559785115,473.6216211280245,192.0,385.2800000000003,-76.80000000000291,368.2000000000007,67.48614805512247,-512.0842985051927,90.88000000000174,-388.0799999999996
1,rotate,42474.0,30151.0,185.2133904446436,228.97336089587435,140.8,192.0,48.0,-246.40000000000146,-19.686585153207545,-244.64826023215016,-51.19999999999999,-193.2800000000003
1,rotate,42282.0,30224.6,328.6822173467862,171.31211282344682,294.4,133.11999999999972,-192.0,73.59999999999854,143.4688269021426,-57.661248072427526,153.59999999999997,-58.88000000000028
1,rotate,42230.8,30272.6,301.10622710193377,205.54863171553527,253.43999999999943,190.71999999999971,-51.19999999999709,48.0,-27.57599024485245,34.23651889208844,-40.96000000000055,57.599999999999994
1,rotate,42240.4,30199.0,311.3387865331176,166.27687752661222,261.1199999999997,128.0,9.599999999998545,-73.59999999999854,10.232559431183859,-39.27175418892304,7.680000000000291,-62.719999999999715
1,rotate,42266.0,30253.4,305.76330715121406,175.44640207179518,230.4,154.88000000000028,25.599999999998545,54.400000000001455,-5.575479381903563,9.169524545182952,-30.719999999999715,26.88000000000028
1,rotate,42259.6,30285.4,301.31020560238676,138.23111082500267,225.28000000000029,129.28000000000029,-6.400000000001455,32.0,-4.453101548827306,-37.2152912467925,-5.11999999999972,-25.599999999999994
1,rotate,42342.8,30237.4,162.35073144199887,187.30253602097952,143.36000000000058,167.6800000000003,83.20000000000437,-48.0,-138.95947416038788,49.07142519597684,-81.9199999999997,38.400000000000006
1,rotate,42243.6,30141.4,273.1458218609703,144.74474083697083,225.28000000000029,113.9199999999997,-99.20000000000437,-96.0,110.7950904189714,-42.55779518400868,81.9199999999997,-53.76000000000059
1,rotate,42182.8,30167.0,218.53914981049755,155.12575543732254,176.63999999999942,134.4,-60.799999999995634,25.599999999998545,-54.606672050472724,10.381014600351705,-48.64000000000087,20.480000000000302
1,rotate,42269.2,30147.8,298.71618637116654,130.1420762091882,245.7600000000006,119.04000000000015,86.39999999999418,-19.200000000000728,80.177036560669,-24.98367922813435,69.12000000000117,-15.359999999999857
1,rotate,42336.4,30298.2,364.23816384346276,336.4416145485545,321.2800000000003,248.32000000000045,67.20000000000437,150.40000000000146,65.52197747229621,206.29953833936634,75.51999999999973,129.2800000000003
1,rotate,42384.4,30423.0,348.2858596038057,307.93246012717816,282.8800000000003,268.8,48.0,124.79999999999927,-15.952304239657053,-28.509154421376365,-38.400000000000034,20.479999999999563
1,rotate,42528.4,30435.8,191.0911824232457,291.95506503568396,167.6800000000003,258.55999999999983,144.0,12.799999999999272,-157.19467718056,-15.977395091494202,-115.19999999999999,-10.24000000000018
1,rotate,42458.0,30336.6,301.71774889771507,394.60035478957343,249.6,337.91999999999973,-70.40000000000146,-99.20000000000073,110.62656647446937,102.64528975388947,81.9199999999997,79.3599999999999
1,rotate,42362.0,30221.4,291.3581987861413,467.3095761912113,236.8,430.08000000000027,-96.0,-115.19999999999709,-10.359550111573753,72.70922140163788,-12.799999999999983,92.16000000000054
1,rotate,42256.4,30131.8,195.59304691084108,354.23291772510095,152.3199999999997,322.55999999999983,-105.59999999999854,-89.60000000000218,-95.76515187530023,-113.07665846611036,-84.4800000000003,-107.52000000000044
1,rotate,42352.4,30035.8,308.8621699070246,269.5228376224582,263.6800000000003,227.84000000000015,96.0,-96.0,113.26912299618354,-84.71008010264273,111.36000000000058,-94.71999999999969
1,rotate,42352.4,30128.6,308.8621699070246,341.45664439296667,263.6800000000003,305.91999999999973,0.0,92.79999999999927,0.0,71.93380677050845,0.0,78.07999999999959
1,rotate,42445.2,30250.2,226.81657787787225,302.8018493997666,189.43999999999943,264.95999999999987,92.79999999999563,121.60000000000218,-82.04559202915237,-38.654794993200085,-74.24000000000086,-40.959999999999866
1,rotate,42474.0,30362.2,201.87917178363816,151.24866941552452,166.4,130.55999999999986,28.80000000000291,112.0,-24.937406094234092,-151.55317998424206,-23.039999999999424,-134.4
1,rotate,42490.0,30323.8,187.41184594376014,142.89352679552,153.6,117.75999999999985,16.0,-38.400000000001455,-14.467325839878015,-8.355142620004528,-12.800000000000011,-12.800000000000011
1,rotate,42253.2,30375.0,304.4880293218053,99.66343361510437,238.08000000000175,76.8,-236.8000000000029,51.20000000000073,117.07618337804516,-43.23009318041562,84.48000000000175,-40.95999999999985
1,rotate,42205.2,30327.0,275.90607097402597,47.463670316909926,218.88000000000176,44.8,-48.0,-48.0,-28.581958347779334,-52.19976329819444,-19.19999999999999,-32.0
1,rotate,42266.0,30343.0,337.44451395740947,72.9712272060181,243.2,64.0,60.80000000000291,16.0,61.538442983383504,25.507556889108173,24.31999999999823,19.200000000000003
1,rotate,42314.0,30279.0,361.6141590147603,172.91847790202272,275.2,128.0,48.0,-64.0,24.169645057350806,99.94725069600462,32.0,64.0
1,rotate,42262.8,30195.8,371.4481928879881,239.97866571841436,311.0399999999994,227.84000000000015,-51.19999999999709,-83.20000000000073,9.834033873227838,67.06018781639165,35.83999999999941,99.84000000000015
1,rotate,42352.4,30096.6,248.40740729650378,247.7882967375196,231.6800000000003,235.5199999999997,89.59999999999854,-99.20000000000073,-123.04078559148434,7.80963101910524,-79.3599999999991,7.679999999999552
1,rotate,42406.8,30189.4,256.67909926569286,368.2920580189622,247.03999999999942,346.8800000000003,54.400000000001455,92.80000000000291,8.271691969189078,120.50376128144262,15.359999999999133,111.36000000000058
1,rotate,42419.6,30189.4,272.0188228785794,368.2920580189622,257.2800000000003,346.8800000000003,12.799999999995634,0.0,15.33972361288653,0.0,10.24000000000089,0.0
1,rotate,42406.8,30266.2,265.31068580016154,351.9127164510296,247.03999999999942,316.15999999999985,-12.799999999995634,76.79999999999927,-6.708137078417849,-16.379341567932613,-10.24000000000089,-30.720000000000425
1,rotate,42374.8,30355.8,307.8326818253704,289.3125645387536,285.43999999999943,213.75999999999985,-32.0,89.59999999999854,42.521996025208864,-62.60015191227603,38.400000000000006,-102.4
1,rotate,42464.4,30330.2,280.54347256684923,332.76922934654743,213.75999999999914,239.35999999999984,89.59999999999854,-25.599999999998545,-27.28920925852117,43.45666480779386,-71.68000000000029,25.599999999999994
1,rotate,42394.0,30096.6,293.1102181772321,348.13882288550485,262.4,334.08000000000027,-70.40000000000146,-233.60000000000218,12.566745610382895,15.369593538957417,48.64000000000084,94.72000000000043
1,rotate,42374.8,30112.6,270.6602298081485,366.340606540111,247.03999999999942,346.8800000000003,-19.19999999999709,16.0,-22.449988369083655,18.201783654606174,-15.360000000000554,12.800000000000011
1,rotate,42384.4,30179.8,276.4992585883625,428.0590613455835,254.71999999999971,400.64000000000016,9.599999999998545,67.20000000000073,5.839028780214051,61.71845480547245,7.680000000000291,53.75999999999988
1,rotate,42493.2,30176.6,157.87387371039026,427.1250870647068,124.16000000000058,398.08000000000027,108.79999999999563,-3.2000000000007276,-118.62538487797227,-0.9339742808766687,-130.55999999999915,-2.5599999999998886
1,rotate,42486.8,30279.0,155.9158747522267,370.4267808892872,119.03999999999942,275.2,-6.399999999994179,102.40000000000146,-1.9579989581635573,-56.69830617541959,-5.120000000001156,-122.88000000000028
1,rotate,42512.4,30381.4,111.1280342659709,203.79754659940832,88.31999999999971,186.88000000000028,25.599999999998545,102.40000000000146,-44.7878404862558,-166.6292342898789,-30.719999999999715,-88.31999999999971
1,rotate,42480.4,30227.8,81.33289617345403,289.48948167435344,62.71999999999971,221.44000000000014,-32.0,-153.60000000000218,-29.795138092516865,85.69193507494512,-25.6,34.55999999999986
1,rotate,42442.0,30167.0,75.04665215717488,209.1047584345041,70.4,172.8,-38.400000000001455,-60.79999999999927,-6.286244016279156,-80.38472323984934,7.680000000000298,-48.64000000000013
1,rotate,42371.6,30205.4,144.74474083697083,243.83076097969675,116.48000000000029,203.5199999999997,-70.40000000000146,38.400000000001455,69.69808867979596,34.72600254519264,46.08000000000028,30.719999999999686
1,rotate,42387.6,30234.2,163.6699117123064,257.07773143552936,133.11999999999972,226.55999999999986,16.0,28.799999999999272,18.925170875335567,13.24697045583261,16.639999999999432,23.040000000000163
1,rotate,42323.6,30307.8,224.82135129943708,266.08149127688966,206.0800000000003,209.92000000000044,-64.0,73.59999999999854,61.15143958713068,9.003759841360306,72.96000000000058,-16.639999999999418
1,rotate,42294.8,30359.0,208.22142060760083,165.96867174266305,183.03999999999942,128.0,-28.799999999995634,51.20000000000073,-16.59993069183625,-100.11281953422662,-23.040000000000873,-81.92000000000044
1,rotate,42272.4,30250.2,204.04862165590765,267.23353083000507,167.6800000000003,252.15999999999985,-22.400000000001455,-108.79999999999927,-4.172798951693181,101.26485908734202,-15.359999999999133,124.15999999999985
1,rotate,42330.0,30215.0,193.8576797548973,244.33419736100734,153.6,224.0,57.599999999998545,-35.20000000000073,-10.190941901010348,-22.899333468997725,-14.080000000000297,-28.159999999999854
1,rotate,42221.2,30183.0,160.4473745504535,226.9519772992685,149.7600000000006,198.4,-108.80000000000291,-32.0,-33.4103052044438,-17.38222006173885,-3.8399999999994066,-25.599999999999994
1,rotate,42285.2,30167.0,122.85666445182729,206.8893424032463,98.56000000000058,185.6,64.0,-16.0,-37.59071009862622,-20.06263489602219,-51.2,-12.800000000000011
1,rotate,42320.4,30282.2,159.55137103725085,257.6745233816619,126.71999999999971,194.55999999999986,35.200000000004366,115.20000000000073,36.69470658542356,50.78518097841561,28.15999999999913,8.959999999999866
1,rotate,42352.4,30387.8,161.46529038689224,125.3321985767657,126.71999999999971,98.55999999999986,32.0,105.59999999999854,1.9139193496413895,-132.3423248048962,0.0,-96.0
1,rotate,42218.0,30355.8,287.8221673184757,157.22391675573505,256.0,125.44000000000014,-134.40000000000146,-32.0,126.35687693158346,31.89171817896934,129.28000000000029,26.88000000000028
1,rotate,42195.6,30170.2,303.342446749717,450.43907468146574,282.8800000000003,348.15999999999985,-22.400000000001455,-185.59999999999854,15.520279431241306,293.2151579257307,26.88000000000028,222.71999999999971
1,rotate,42256.4,30157.4,350.92198563214805,444.3969396832819,331.5199999999997,337.91999999999973,60.80000000000291,-12.799999999999272,47.57953888243105,-6.042134998183826,48.63999999999942,-10.240000000000123
1,rotate,42262.8,30115.8,356.25069824484945,407.8462455387594,336.6399999999994,318.7200000000004,6.400000000001455,-41.60000000000218,5.328712612701395,-36.55069414452254,5.11999999999972,-19.199999999999307
1,rotate,42278.8,30298.2,364.91226342752543,623.006388410294,349.43999999999943,450.55999999999983,16.0,182.40000000000146,8.661565182675986,215.16014287153462,12.800000000000011,131.8399999999994
1,rotate,42429.2,30253.4,246.9189340654907,639.807971191271,193.28000000000173,504.3199999999997,150.39999999999418,-44.79999999999927,-117.99332936203473,16.801582780977014,-156.1599999999977,53.75999999999988
1,rotate,42515.6,30567.0,85.62616422655279,465.48727157675984,69.1199999999997,409.6,86.40000000000146,313.59999999999854,-161.29276983893791,-174.32069961451117,-124.16000000000203,-94.71999999999969
1,rotate,42477.2,30496.6,64.31920397732364,517.7279594536203,53.76000000000058,465.91999999999973,-38.400000000001455,-70.40000000000146,-21.30696024922915,52.24068787686048,-15.359999999999125,56.31999999999971
1,rotate,42448.4,30435.8,45.92864030013083,541.963245986263,39.68000000000029,514.5599999999998,-28.799999999995634,-60.79999999999927,-18.39056367719281,24.235286532642704,-14.08000000000029,48.6400000000001
1,rotate,42461.2,30163.8,65.11036783902787,367.8469246847312,55.03999999999942,289.2799999999996,12.799999999995634,-272.0,19.181727538897043,-174.1163213015318,15.359999999999125,-225.28000000000026
1,rotate,42493.2,30231.0,100.88884973167846,348.6384947190317,93.43999999999942,275.2,32.0,67.20000000000073,35.77848189265059,-19.20842996569951,38.4,-14.079999999999586
1,rotate,42429.2,29882.2,203.2440897051765,388.032163615233,149.7600000000006,295.67999999999955,-64.0,-348.7999999999993,102.35523997349803,39.39366889620129,56.32000000000117,20.479999999999563
1,rotate,42426.0,29981.4,203.143299175847,459.9102521144077,147.2,363.5199999999997,-3.1999999999970896,99.20000000000073,-0.10079052932948684,71.87808849917468,-2.560000000000599,67.84000000000015
1,rotate,42304.4,30122.2,316.88079777704866,570.139070753744,293.1199999999997,476.15999999999985,-121.59999999999854,140.79999999999927,113.73749860120165,110.22881863933634,145.91999999999973,112.64000000000016
1,rotate,42266.0,30311.0,293.1102181772321,622.8091200360249,262.4,486.4,-38.400000000001455,188.79999999999927,-23.77057959981653,52.67004928228084,-30.719999999999743,10.240000000000123
1,rotate,42205.2,30573.4,232.39139398916836,798.8215320081915,213.7600000000006,606.7199999999997,-60.80000000000291,262.40000000000146,-60.71882418806376,176.01241197216666,-48.63999999999939,120.31999999999971
1,rotate,42285.2,30711.0,236.75675280808545,565.8664153313504,186.88000000000176,441.6,80.0,137.59999999999854,4.3653588189170875,-232.95511667684116,-26.87999999999883,-165.11999999999966
1,rotate,42326.8,30362.2,273.29573725125016,981.3831871394165,203.51999999999825,860.1599999999999,41.60000000000582,-348.7999999999993,36.53898444316471,415.5167718080661,16.63999999999649,418.55999999999983
1,rotate,42509.2,29978.2,148.86020287549493,1100.6046338263086,138.2399999999994,989.4400000000002,182.39999999999418,-384.0,-124.43553437575522,119.22144668689214,-65.27999999999884,129.2800000000003
1,rotate,42477.2,30103.0,186.15090652565797,1221.6709868045489,163.8399999999994,1139.2,-32.0,124.79999999999927,37.29070365016304,121.06635297824027,25.599999999999994,149.75999999999988
1,rotate,42522.0,29843.8,175.85448529950074,999.0664442368734,147.2,828.1599999999999,44.80000000000291,-259.2000000000007,-10.296421226157236,-222.60454256767548,-16.639999999999418,-311.0400000000002
1,rotate,42410.0,29619.8,308.9284706852904,1097.530026924132,281.6,1007.3599999999999,-112.0,-224.0,133.07398538578965,98.46358268725862,134.40000000000003,179.20000000000005
1,rotate,42339.6,30413.4,289.34795662013573,1527.1277091323966,248.3199999999997,1345.2800000000002,-70.40000000000146,793.6000000000022,-19.58051406515466,429.5976822082646,-33.280000000000314,337.9200000000003
1,rotate,42346.0,30963.8,298.1328562906941,1365.144153560371,256.0,1175.0400000000002,6.400000000001455,550.3999999999978,8.784899670558389,-161.98355557202558,7.680000000000291,-170.24
1,rotate,42458.0,29933.2,332.2456922219575,2247.2725157399113,294.4,1931.7599999999998,112.0,-1030.5999999999985,34.11283593126336,882.1283621795403,38.39999999999998,756.7199999999996
1,rotate,42493.2,29805.2,351.03868732708685,2242.1518592637563,322.56000000000057,1895.8400000000001,35.19999999999709,-128.0,18.792995105129364,-5.120656476155091,28.160000000000593,-35.91999999999962
1,rotate,42570.0,30707.8,235.36864702014873,2512.1190576881672,230.4,2180.2400000000002,76.80000000000291,902.5999999999985,-115.67004030693812,269.967198424411,-92.16000000000057,284.4000000000001
1,rotate,42474.0,30189.4,384.1333101933434,2304.078696572638,345.6,1793.6800000000003,-96.0,-518.3999999999978,148.76466317319466,-208.04036111552932,115.20000000000002,-386.55999999999995
1,rotate,42406.8,30051.8,356.2506982445148,2232.8420812945974,291.8399999999994,1655.44,-67.19999999999709,-137.60000000000218,-27.882611948828583,-71.23661527804052,-53.760000000000616,-138.24000000000024
1,rotate,42314.0,31152.8,304.08419886611614,1276.7835211969514,217.6,1099.7599999999998,-92.80000000000291,1101.0,-52.16649937839867,-956.058560097646,-74.23999999999941,-555.6800000000003
1,rotate,42259.6,31047.2,239.38053387901087,1412.2663204934,183.04000000000087,1184.2400000000002,-54.400000000001455,-105.59999999999854,-64.70366498710527,135.48279929644855,-34.55999999999912,84.48000000000047
1,rotate,42358.8,30509.4,317.97760927422553,900.0252440903082,240.63999999999942,715.5199999999998,99.20000000000437,-537.7999999999993,78.59707539521466,-512.2410764030917,57.599999999998545,-468.7200000000005
1,rotate,42493.2,31248.8,153.93297242674655,1555.4971423953225,113.91999999999825,1259.7599999999998,134.39999999999418,739.3999999999978,-164.04463684747898,655.4718983050143,-126.72000000000116,544.24
1,rotate,42470.8,30928.8,169.44898937308923,1737.7466328553235,125.43999999999942,1515.7599999999998,-22.39999999999418,-320.0,15.516016946342688,182.24949046000097,11.520000000001161,256.0
1,rotate,42458.0,30259.8,182.7085110225995,1898.1211131010557,140.8,1532.56,-12.80000000000291,-669.0,13.259521649510276,160.37448024573223,15.360000000000596,16.800000000000182
1,rotate,42422.8,29984.4,192.90453597530416,2130.49370804042,162.56000000000057,1752.8800000000003,-35.19999999999709,-275.3999999999978,10.196024952704647,232.3725949393645,21.76000000000056,220.3200000000004
1,rotate,42432.4,30608.6,210.7145937040586,2604.7792689592875,174.0800000000003,2501.9199999999996,9.599999999998545,624.1999999999971,17.81005772875443,474.2855609188673,11.519999999999726,749.0399999999993
1,rotate,42397.2,30381.2,215.47194713076746,2352.231400181526,171.51999999999825,2229.04,-35.200000000004366,-227.39999999999782,4.757353426708875,-252.54786877776132,-2.5600000000020486,-272.87999999999965
1,rotate,42374.8,30278.8,228.39124326406292,2405.394055035487,180.48000000000175,2310.96,-22.39999999999418,-102.40000000000146,12.919296133295461,53.1626548539607,8.960000000003504,81.92000000000007
1,rotate,42304.4,30999.0,299.2641642428339,2297.460249928173,208.64000000000087,2170.0,-70.40000000000146,720.2000000000007,70.87292097877096,-107.93380510731367,28.159999999999116,-140.96000000000004
1,rotate,42330.0,31879.2,303.07226860924163,1621.6120867827397,236.8,1216.0799999999995,25.599999999998545,880.2000000000007,3.808104366407747,-675.8481631454335,28.159999999999144,-953.9200000000005
1,rotate,42227.6,30797.2,179.48548687835975,1862.1295765869631,142.0800000000003,1803.7599999999998,-102.40000000000146,-1082.0,-123.58678173088188,240.5174898042235,-94.71999999999971,587.6800000000003
1,rotate,42307.6,30230.8,262.8289177392051,1618.3508148729725,206.0800000000003,1504.1599999999999,80.0,-566.4000000000015,83.34343086084536,-243.77876171399066,64.0,-299.5999999999999
1,rotate,42426.0,30496.4,316.4604240660239,1470.3430348051388,256.0,1291.6800000000003,118.40000000000146,265.6000000000022,53.631506326818794,-148.00778006783366,49.9199999999997,-212.47999999999956
1,rotate,42490.0,29942.8,221.24014102338592,1275.4168573451136,204.8,966.5599999999998,64.0,-553.6000000000022,-95.22028304263799,-194.9261774600252,-51.19999999999999,-325.12000000000046
1,rotate,42464.4,29405.2,234.19103313282258,652.4490478189629,225.28000000000029,498.15999999999985,-25.599999999998545,-537.5999999999985,12.950892109436666,-622.9678095261507,20.480000000000274,-468.4
1,rotate,42445.2,29735.0,249.18940587507313,310.08643956165486,240.63999999999942,281.6,-19.200000000004366,329.7999999999993,14.998372742250552,-342.362608257308,15.359999999999133,-216.55999999999983
1,rotate,42426.0,29904.6,232.0827438654054,499.19999999998566,217.6,421.1199999999997,-19.19999999999709,169.59999999999854,-17.10666200966773,189.1135604383308,-23.039999999999424,139.5199999999997
1,rotate,42387.6,30000.6,177.47743518546108,580.0391710911059,171.5199999999997,536.3199999999997,-38.400000000001455,96.0,-54.60530867994433,80.83917109112025,-46.0800000000003,115.19999999999999
1,rotate,42483.6,30426.2,189.20634238893862,693.4038938453684,180.4800000000003,604.1599999999999,96.0,425.6000000000022,11.728907203477547,113.36472275426252,8.960000000000605,67.84000000000015
1,rotate,42560.4,30054.8,175.73798678690434,1326.6162067455914,136.95999999999913,1049.8400000000001,76.80000000000291,-371.40000000000146,-13.46835560203428,633.212312900223,-43.520000000001176,445.6800000000003
1,rotate,42506.0,30259.6,282.7974540198256,1364.6349841624265,224.0,1067.8400000000008,-54.400000000001455,204.79999999999927,107.05946723292124,38.018777416835064,87.04000000000087,18.000000000000682
1,rotate,42426.0,30640.4,300.357120774746,1665.4920714311174,281.6,1220.1599999999992,-80.0,380.8000000000029,17.559666754920443,300.857087268691,57.60000000000002,152.31999999999834
1,rotate,42426.0,30233.8,300.357120774746,1851.969481390025,281.6,1705.44,0.0,-406.6000000000022,0.0,186.47740995890763,0.0,485.2800000000009
1,rotate,42314.0,30288.2,281.89075898314826,1890.4032797262976,262.4,1748.9599999999998,-112.0,54.400000000001455,-18.466361791597762,38.4337983362725,-19.200000000000045,43.519999999999754
1,rotate,42320.4,30845.2,290.40771339595386,1344.9259310459709,270.08000000000027,1080.56,6.400000000001455,557.0,8.516954412805603,-545.4773486803267,7.680000000000291,-668.3999999999999
1,rotate,42509.2,30291.4,292.4807002180454,1718.6804938673115,271.3600000000006,1527.5199999999998,188.79999999999563,-553.7999999999993,2.0729868220915364,373.75456282134064,1.2800000000003138,446.9599999999998
1,rotate,42602.0,30061.0,250.95019426172996,1450.1231671827215,185.6,1343.2,92.80000000000291,-230.40000000000146,-41.53050595631544,-268.55732668458995,-85.76000000000059,-184.3199999999997
1,rotate,42538.0,30435.6,281.70906978654415,1257.0065393624877,262.4,938.4800000000002,-64.0,374.59999999999854,30.758875524814187,-193.11662782023382,76.79999999999998,-404.7199999999998
1,rotate,42592.4,30528.4,218.35164299775442,1361.1435780254462,197.11999999999972,1029.2800000000002,54.400000000001455,92.80000000000291,-63.357426788789724,104.1370386629585,-65.28000000000026,90.79999999999995
1,rotate,42570.0,29872.2,210.32546208187043,1943.30331137473,179.2,1800.1599999999999,-22.400000000001455,-656.2000000000007,-8.026180915883998,582.1597333492837,-17.91999999999973,770.8799999999997
1,rotate,42426.0,31373.4,187.13845142020472,2760.4529048690342,166.4,2066.3199999999997,-144.0,1501.2000000000007,-23.18701066166571,817.1495934943043,-12.799999999999983,266.15999999999985
1,rotate,42432.4,29405.0,195.59304691084108,4777.943699961313,174.0800000000003,4044.4,6.400000000001455,-1968.4000000000015,8.454595490636365,2017.4907950922784,7.680000000000291,1978.0800000000004
1,rotate,42368.4,30054.8,271.83053544426195,5091.5492102109765,241.9199999999997,4564.24,-64.0,649.7999999999993,76.23748853342087,313.6055102496639,67.8399999999994,519.8399999999997
1,rotate,42304.4,30189.4,291.46361694036847,5154.537170299563,276.4800000000003,4671.92,-64.0,134.60000000000218,19.633081496106513,62.98796008858608,34.5600000000006,107.68000000000029
1,rotate,42138.0,30800.8,310.9109197180193,4927.416986616819,236.8,3938.2400000000002,-166.40000000000146,611.3999999999978,19.447302777650805,-227.12018368274403,-39.68000000000029,-733.6799999999998
1,rotate,42144.4,29315.6,311.83174950598254,4322.1323718738795,244.4800000000003,3518.4800000000005,6.400000000001455,-1485.2000000000007,0.920829787963271,-605.2846147429391,7.680000000000291,-419.75999999999976
1,rotate,42045.2,31514.4,163.60733480003864,2027.7029960030682,143.36000000000058,1859.1199999999997,-99.20000000000437,2198.800000000003,-148.2244147059439,-2294.4293758708113,-101.11999999999972,-1659.3600000000008
1,rotate,42186.0,29875.6,287.4661719228061,2751.858470197928,204.8,2391.6800000000003,140.8000000000029,-1638.800000000003,123.85883712276745,724.1554741948598,61.43999999999943,532.5600000000006
1,rotate,42128.4,29654.6,327.0581599650488,2539.83311262768,273.91999999999973,2214.88,-57.599999999998545,-221.0,39.59198804224269,-212.02535757024816,69.11999999999972,-176.80000000000018
1,rotate,42227.6,29965.0,274.2681899162968,2672.884209987406,190.71999999999971,2463.2,99.19999999999709,310.40000000000146,-52.78997004875197,133.0510973597261,-83.20000000000002,248.3199999999997
1,rotate,42288.4,30442.0,294.7823603946927,2529.671124869792,238.0800000000003,1960.0,60.80000000000291,477.0,20.514170478395897,-143.2130851176139,47.36000000000058,-503.1999999999998
1,rotate,42307.6,30006.8,291.639229185748,2297.6900052008787,222.71999999999971,1785.9200000000005,19.19999999999709,-435.2000000000007,-3.1431312089447374,-231.98111966891338,-15.360000000000582,-174.07999999999947
1,rotate,42202.0,29296.2,232.30325008478104,3693.854702069363,185.6,2922.8799999999997,-105.59999999999854,-710.5999999999985,-59.33597910096694,1396.1646968684845,-37.11999999999972,1136.9599999999991
1,rotate,42323.6,30381.4,125.82146080935586,4866.528191637236,107.51999999999971,3356.959999999999,121.59999999999854,1085.2000000000007,-106.48178927542519,1172.6734895678728,-78.08000000000028,434.0799999999995
1,rotate,42349.2,30740.0,124.51248933393595,5014.51134209506,104.96000000000058,3677.2,25.599999999998545,358.59999999999854,-1.3089714754199093,147.9831504578242,-2.5599999999991354,320.2400000000007
1,rotate,42304.4,30013.4,97.37679394892358,5238.202386315356,78.0800000000003,4422.32,-44.799999999995634,-726.5999999999985,-27.13569538501237,223.69104422029613,-26.88000000000028,745.1199999999999
1,rotate,42330.0,31258.4,108.51727973000429,5887.169798808243,96.0,5418.32,25.599999999998545,1245.0,11.140485781080713,648.967412492887,17.919999999999703,996.0
1,rotate,42317.2,31143.2,131.70634001603574,6070.2159895674195,111.36000000000058,5556.5599999999995,-12.80000000000291,-115.20000000000073,23.18906028603145,183.04619075917617,15.360000000000582,138.23999999999978
1,rotate,42339.6,29683.6,153.3331014497531,5268.33767330835,129.28000000000029,4388.88,22.400000000001455,-1459.6000000000022,21.62676143371735,-801.8783162590698,17.919999999999703,-1167.6799999999994
1,rotate,42394.0,29117.0,203.143299175847,4971.852009060605,172.8,3935.6,54.400000000001455,-566.5999999999985,49.81019772609392,-296.48566424774435,43.519999999999726,-453.2800000000002
1,rotate,42387.6,30544.6,207.03777433141255,5174.51712143269,180.4800000000003,3918.88,-6.400000000001455,1427.5999999999985,3.8944751555655444,202.66511237208488,7.680000000000291,-16.7199999999998
1,rotate,42384.4,29206.8,206.54258640753525,4195.73661709121,177.9199999999997,3117.5200000000004,-3.1999999999970896,-1337.7999999999993,-0.49518792387729604,-978.7805043414801,-2.560000000000599,-801.3599999999997
1,rotate,42464.4,30653.4,136.3665648167254,1850.8889323781464,107.51999999999971,1390.4800000000002,80.0,1446.6000000000022,-70.17602159080985,-2344.8476847130637,-70.39999999999999,-1727.0400000000002
1,rotate,42464.4,29866.0,136.3665648167254,2669.3276306965395,107.51999999999971,2057.6,0.0,-787.4000000000015,0.0,818.4386983183931,0.0,667.1199999999997
1,rotate,42432.4,29718.8,98.94159893502228,2641.466365487182,81.9199999999997,1939.8400000000001,-32.0,-147.20000000000073,-37.424965881703116,-27.861265209357498,-25.60000000000001,-117.75999999999976
1,rotate,42454.8,29478.8,60.20764070946252,2257.2480058691076,55.03999999999942,1747.8400000000001,22.400000000001455,-240.0,-38.73395822555977,-384.2183596180744,-26.880000000000287,-192.0
1,rotate,42506.0,31095.2,97.58688436489652,4135.039898235556,70.4,3508.2400000000002,51.19999999999709,1616.4000000000015,37.379243655434,1877.7918923664488,15.36000000000059,1760.4
1,rotate,42541.2,31937.2,110.57377627711372,3976.173809078266,93.43999999999942,3202.16,35.19999999999709,842.0,12.986891912217203,-158.8660891572904,23.03999999999941,-306.0800000000004
1,rotate,42384.4,32567.8,341.45664439261753,3136.7877454491772,267.5199999999997,2445.44,-156.79999999999563,630.5999999999985,230.8828681155038,-839.3860636290888,174.08000000000027,-756.7199999999998
1,rotate,42298.0,31921.2,354.17509793885847,3863.5328599612,313.6,3221.3599999999997,-86.40000000000146,-646.5999999999985,12.718453546240937,726.7451145120226,46.080000000000325,775.9199999999996
1,rotate,42314.0,30234.2,358.48570403852926,4789.6566641044365,326.4,4171.4400000000005,16.0,-1687.0,4.3106060996707924,926.1238041432366,12.799999999999955,950.0800000000008
1,rotate,42218.0,29216.4,312.71712457107304,3345.5875776909515,262.4,2950.0800000000004,-96.0,-1017.7999999999993,-45.76857946745622,-1444.069086413485,-64.0,-1221.3600000000001
1,rotate,42170.0,28755.4,256.0,2947.4275292193297,211.2,2532.72,-48.0,-461.0,-56.71712457107304,-398.16004847162185,-51.19999999999999,-417.3600000000006
1,rotate,42202.0,29805.2,204.89997559785115,3716.0023358442463,179.2,3372.56,32.0,1049.7999999999993,-51.10002440214885,768.5748066249166,-32.0,839.8400000000001
1,rotate,42138.0,31741.6,273.408119850161,4093.6777889814475,249.6,3378.88,-64.0,1936.3999999999978,68.50814425230982,377.6754531372012,70.4,6.320000000000164
1,rotate,42038.8,31869.8,231.95033951214586,3868.2485132162933,207.36000000000058,3225.04,-99.19999999999709,128.20000000000073,-41.45778033801511,-225.42927576515422,-42.23999999999941,-153.84000000000015
1,rotate,42090.0,30666.2,281.70906978654415,4260.620443081024,268.8,3755.04,51.19999999999709,-1203.5999999999985,49.75873027439829,392.37192986473065,61.43999999999943,530.0
1,rotate,42154.0,31159.2,369.735040265323,4360.217352380486,345.6,4103.36,64.0,493.0,88.02597047877885,99.59690929946191,76.80000000000001,348.3199999999997
1,rotate,42205.2,30535.0,347.81512330600566,4073.584858573591,304.6399999999994,3604.0,51.19999999999709,-624.2000000000007,-21.919916959317334,-286.6324938068947,-40.960000000000605,-499.3599999999997
1,rotate,42352.4,28797.0,273.52045627305245,2893.674757121129,241.9199999999997,2658.0,147.20000000000437,-1738.0,-74.29466703295321,-1179.9101014524622,-62.719999999999715,-946.0
2,flex,42522.0,30247.0,0.0,0.0,0.0,0.0,42522.0,30247.0,0.0,0.0,0.0,0.0
2,flex,42450.0,30063.0,72.0,184.0,72.0,184.0,-72.0,-184.0,72.0,184.0,72.0,184.0
2,flex,42447.333333333336,30673.666666666668,58.90859208851752,876.5832659947883,49.77777777777859,814.2222222222226,-2.6666666666642413,610.6666666666679,-13.091407911482477,692.5832659947883,-22.22222222222141,630.2222222222226
2,flex,42506.0,30066.75,113.70136322841516,1296.6657963793139,96.0,1004.25,58.66666666666424,-606.9166666666679,54.79277113989764,420.0825303845255,46.22222222222141,190.02777777777737
2,flex,42563.6,30106.0,153.66665220631197,1162.4267718871586,139.5199999999997,834.8,57.599999999998545,39.25,39.965288977896805,-134.2390244921553,43.5199999999997,-169.45000000000005
2,flex,42458.0,29645.0,277.4973873750027,1439.207420770196,224.0,1240.8,-105.59999999999854,-461.0,123.83073516869072,276.78064888303743,84.4800000000003,406.0
2,flex,42486.8,29491.4,275.16278818129524,1446.998631651033,215.03999999999942,1270.0800000000004,28.80000000000291,-153.59999999999854,-2.3345991937074473,7.79121088083707,-8.960000000000576,29.280000000000427
2,flex,42461.2,29699.6,283.9537990593344,1807.7757161772256,245.7600000000006,1519.9199999999996,-25.60000000000582,208.1999999999971,8.791010878039174,360.77708452619254,30.720000000001164,249.83999999999924
2,flex,42378.0,30224.6,267.53990356562633,1686.4972694908465,224.0,1358.4800000000002,-83.19999999999709,525.0,-16.413895493708083,-121.27844668637908,-21.760000000000588,-161.43999999999937
2,flex,42288.4,30221.4,170.71332695405897,1686.4365508373,126.71999999999971,1355.9199999999996,-89.59999999999854,-3.1999999999970896,-96.82657661156736,-0.06071865354647343,-97.28000000000029,-2.5600000000006276
2,flex,42307.6,30608.8,138.9699248042716,1295.493790027604,103.68000000000029,1035.7599999999998,19.19999999999709,387.3999999999978,-31.743402149787357,-390.942760809696,-23.039999999999424,-320.15999999999985
2,flex,42307.6,31018.4,138.9699248042716,1059.4314701763215,103.68000000000029,823.2800000000003,0.0,409.6000000000022,0.0,-236.0623198512826,0.0,-212.47999999999945
2,flex,42358.8,30717.4,174.51005701607014,574.8076547854197,149.7600000000006,523.5199999999998,51.200000000004366,-301.0,35.54013221179852,-484.62381539090177,46.0800000000003,-299.76000000000056
2,flex,42384.4,30170.0,168.29688054124523,1166.5460128087634,133.11999999999972,930.8,25.599999999998545,-547.4000000000015,-6.213176474824905,591.7383580233437,-16.640000000000867,407.2800000000002
2,flex,42467.6,30294.8,222.7622948345654,1200.9783345256642,180.4800000000003,1030.64,83.19999999999709,124.79999999999927,54.46541429332018,34.43232171690079,47.36000000000058,99.84000000000015
2,flex,42595.6,30515.6,135.99058790981536,1205.712337168418,120.31999999999971,952.6400000000009,128.0,220.79999999999927,-86.77170692475005,4.734002642753694,-60.16000000000059,-77.9999999999992
2,flex,42646.8,30592.4,146.4327832136792,1255.4526832979163,131.8399999999994,983.3599999999991,51.200000000004366,76.80000000000291,10.442195303863826,49.74034612949845,11.519999999999698,30.71999999999821
2,flex,42624.4,30374.8,163.98243808338478,1183.4702193126748,158.71999999999971,909.0400000000002,-22.400000000001455,-217.60000000000218,17.54965486970559,-71.98246398524157,26.880000000000308,-74.31999999999891
2,flex,42634.0,30442.0,151.11320260006298,1057.1194823670708,147.2,828.4,9.599999999998545,67.20000000000073,-12.869235483321802,-126.35073694560401,-11.519999999999726,-80.64000000000021
2,flex,42525.2,29993.8,205.7478067934729,1239.5478853194975,183.03999999999942,1155.0400000000002,-108.80000000000291,-448.2000000000007,54.63460419340993,182.42840295242672,35.839999999999435,326.6400000000002
2,flex,42470.8,29705.8,178.57032228132613,1139.5068055961713,122.88000000000174,989.7599999999999,-54.39999999999418,-288.0,-27.177484512146776,-100.04107972332622,-60.15999999999768,-165.2800000000003
2,flex,42381.2,29507.4,94.60317119541439,852.5989913199772,85.76000000000059,765.9199999999997,-89.60000000000582,-198.39999999999782,-83.96715108591174,-286.907814276194,-37.120000000001156,-223.84000000000015
2,flex,42403.6,29817.8,119.98933286044905,1277.1288736850663,103.68000000000029,1124.1599999999999,22.400000000001455,310.3999999999978,25.386161665034663,424.52988236508907,17.919999999999703,358.2400000000001
2,flex,42346.0,30080.4,152.46245439436004,1095.0016620991341,134.4,914.0800000000003,-57.599999999998545,262.6000000000022,32.473121533910984,-182.12721158593217,30.719999999999715,-210.0799999999996
2,flex,42310.8,30451.8,192.90453597468618,820.623762756121,170.2399999999994,631.0400000000002,-35.19999999999709,371.3999999999978,40.442081580326146,-274.37789934301315,35.83999999999941,-283.0400000000001
2,flex,42307.6,30589.4,190.55455911618031,706.439409999093,167.6800000000003,522.2400000000009,-3.2000000000043656,137.60000000000218,-2.349976858505869,-114.18435275702802,-2.559999999999121,-108.79999999999927
2,flex,42218.0,30413.4,253.790464753711,797.795362232658,230.4,622.0800000000003,-89.59999999999854,-176.0,63.23590563753069,91.35595223356506,62.719999999999715,99.83999999999935
2,flex,42246.8,30077.4,296.6522543310675,304.01684163856834,264.9600000000006,280.3199999999997,28.80000000000291,-336.0,42.86178957735652,-493.7785205940897,34.5600000000006,-341.76000000000056
2,flex,42221.2,30179.8,308.82901418120275,272.16935903970864,285.43999999999943,203.52000000000044,-25.60000000000582,102.39999999999782,12.176759850135227,-31.8474825988597,20.479999999998824,-76.79999999999927
2,flex,42291.6,30119.0,299.9477287797074,226.9519772992685,270.08000000000027,179.2,70.40000000000146,-60.79999999999927,-8.881285401495347,-45.217381740440146,-15.359999999999161,-24.320000000000448
2,flex,42240.4,30003.8,291.6392291853392,280.6894369228418,250.88000000000028,272.64000000000016,-51.19999999999709,-115.20000000000073,-8.308499594368186,53.73745962357333,-19.19999999999999,93.44000000000017
2,flex,42307.6,30205.4,234.40955611901612,327.3711044058626,197.11999999999972,229.11999999999972,67.19999999999709,201.60000000000218,-57.2296730663231,46.68166748302076,-53.76000000000056,-43.52000000000044
2,flex,42310.8,30394.2,239.9786657179176,503.3672218172951,200.96000000000058,419.84000000000015,3.2000000000043656,188.79999999999927,5.569109598901491,175.99611741143252,3.840000000000856,190.72000000000043
2,flex,42387.6,30423.0,193.48757066038434,500.98143678181947,148.4800000000003,403.2,76.79999999999563,28.799999999999272,-46.49109505753327,-2.385785035475635,-52.480000000000274,-16.640000000000157
2,flex,42422.8,30570.2,206.98830884822314,516.7182597894827,181.7600000000006,418.55999999999983,35.200000000004366,147.20000000000073,13.500738187838806,15.73682300766319,33.280000000000285,15.359999999999843
2,flex,42454.8,31232.8,178.28336994739507,900.1831813581665,156.1600000000006,694.0799999999996,32.0,662.5999999999985,-28.70493890082807,383.46492156868385,-25.599999999999994,275.51999999999975
2,flex,42528.4,30864.8,136.3665648167254,1326.5076554622901,120.31999999999971,980.6400000000001,73.59999999999854,-368.0,-41.91680513066967,426.3244741041236,-35.840000000000884,286.5600000000005
2,flex,42352.4,30202.2,267.46334328252624,1768.0225564171942,203.5199999999997,1487.7599999999998,-176.0,-662.5999999999985,131.09677846580084,441.5149009549041,83.19999999999999,507.11999999999966
2,flex,42368.4,29846.8,272.77067291025656,1860.866185409375,216.3199999999997,1677.36,16.0,-355.40000000000146,5.307329627730326,92.84362899218081,12.800000000000011,189.60000000000014
2,flex,42323.6,30013.2,253.70975542951615,1982.5253995850944,189.44000000000088,1877.0400000000002,-44.80000000000291,166.40000000000146,-19.060917480740414,121.6592141757194,-26.87999999999883,199.6800000000003
2,flex,42349.2,29814.6,261.0305729220969,1707.198945641664,200.96000000000058,1638.7199999999998,25.599999999998545,-198.60000000000218,7.320817492580744,-275.32645394343035,11.519999999999698,-238.3200000000004
2,flex,42419.6,30205.0,348.28585960414796,1662.0554744051042,257.2800000000003,1560.8,70.40000000000146,390.40000000000146,87.25528668205106,-45.14347123655989,56.31999999999974,-77.91999999999985
2,flex,42550.8,30899.6,201.72694415905883,1189.6143240563345,154.88000000000176,938.4800000000002,131.20000000000437,694.5999999999985,-146.55891544508913,-472.4411503487697,-102.39999999999856,-622.3199999999997
2,flex,42496.4,31411.8,243.2000000000196,415.18689767376645,180.4800000000003,360.95999999999987,-54.400000000001455,512.2000000000007,41.47305584096077,-774.427426382568,25.599999999998545,-577.5200000000004
2,flex,42502.8,31072.6,239.5515810839071,634.4237069972846,175.36000000000058,519.6800000000003,6.400000000001455,-339.2000000000007,-3.6484189161124903,219.23680932351817,-5.11999999999972,158.72000000000043
2,flex,42538.0,30019.6,245.58827333548447,1713.8480212667869,204.8,1323.8400000000008,35.19999999999709,-1053.0,6.036692251577364,1079.4243142695022,29.43999999999943,804.1600000000005
2,flex,42362.0,29827.6,208.3689036298474,1669.8842594623666,179.2,1247.0400000000009,-176.0,-192.0,-37.219369705637064,-43.9637618044203,-25.600000000000023,-76.79999999999995
2,flex,42413.2,29747.6,262.0094654783994,1604.8331502060196,234.2399999999994,1215.0400000000009,51.19999999999709,-80.0,53.64056184855201,-65.05110925634699,55.039999999999424,-32.0
2,flex,42464.4,29715.6,243.19999999952944,1576.4389743977256,197.11999999999972,1202.240000000001,51.200000000004366,-32.0,-18.80946547886998,-28.394175808293994,-37.11999999999969,-12.799999999999955
2,flex,42413.2,29776.4,280.1416784417012,1594.119644192348,258.56000000000057,1226.559999999999,-51.200000000004366,60.80000000000291,36.941678442171735,17.680669794622418,61.44000000000085,24.319999999998117
2,flex,42336.4,30573.4,256.3198002494426,440.69472427057053,225.28000000000029,382.7199999999997,-76.79999999999563,797.0,-23.821878192258566,-1153.4249199217775,-33.280000000000285,-843.8399999999993
2,flex,42413.2,30474.2,215.70943419373478,617.1438730150871,175.36000000000058,501.7599999999999,76.79999999999563,-99.20000000000073,-40.61036605570783,176.4491487445166,-49.9199999999997,119.04000000000019
2,flex,42298.0,30493.4,138.74869368771616,631.9979746802501,128.0,517.1199999999997,-115.19999999999709,19.200000000000728,-76.96074050601862,14.854101665162943,-47.36000000000058,15.359999999999786
2,flex,42333.2,30480.6,191.30541027432778,620.8824687491837,170.2399999999994,506.8800000000003,35.19999999999709,-12.80000000000291,52.55671658661163,-11.115505931066423,42.23999999999941,-10.239999999999384
2,flex,42461.2,29978.0,219.24087210230942,1232.1340836126465,195.8399999999994,1110.0,128.0,-502.59999999999854,27.93546182798164,611.2516148634628,25.599999999999994,603.1199999999997
2,flex,42502.8,30054.8,196.84552318975256,1285.2542783434187,162.56000000000057,1171.44,41.60000000000582,76.79999999999927,-22.39534891255687,53.120194730772255,-33.279999999998836,61.440000000000055
2,flex,42374.8,30307.6,346.1920854089529,1242.4085640400588,304.6399999999994,984.6400000000009,-128.0,252.79999999999927,149.34656221920034,-42.845714303359955,142.07999999999885,-186.79999999999916
2,flex,42413.2,30038.8,333.537644052562,1205.1118454318098,258.56000000000057,1024.2400000000002,38.39999999999418,-268.7999999999993,-12.654441356390919,-37.296718608248966,-46.07999999999885,39.59999999999934
2,flex,42362.0,30307.6,312.22555949177564,1502.5018602318444,224.0,1239.2800000000002,-51.19999999999709,268.7999999999993,-21.31208456078633,297.3900148000346,-34.56000000000057,215.03999999999996
2,flex,42339.6,30845.4,285.60784302983103,875.6313379498762,215.04000000000087,692.4800000000002,-22.400000000001455,537.8000000000029,-26.61771646194461,-626.8705222819682,-8.959999999999127,-546.8
2,flex,42378.0,30519.0,312.71712457107304,1019.9921568325906,230.4,768.0,38.400000000001455,-326.40000000000146,27.109281541242012,144.3608188827144,15.359999999999133,75.51999999999975
2,flex,42419.6,30179.8,238.3087073528793,1202.6381666985553,190.71999999999971,1007.3599999999999,41.599999999998545,-339.2000000000007,-74.40841721819373,182.64600986596474,-39.68000000000029,239.3599999999999
2,flex,42413.2,30621.4,239.76521849537207,1333.0448754636827,195.8399999999994,1191.6800000000003,-6.400000000001455,441.6000000000022,1.456511142492758,130.4067087651274,5.119999999999692,184.3200000000004
2,flex,42368.4,30087.0,259.29874662233556,1038.8917171678672,231.6800000000003,896.0,-44.799999999995634,-534.4000000000015,19.53352812696349,-294.1531582958155,35.840000000000884,-295.6800000000003
2,flex,42253.2,29498.0,235.45564338136708,1392.5645406946135,202.2399999999994,1021.6,-115.20000000000437,-589.0,-23.843103240968475,353.67282352674624,-29.44000000000088,125.60000000000002
2,flex,42275.6,29731.6,275.57184181289745,1460.7137433460757,229.11999999999972,1212.3199999999997,22.400000000001455,233.59999999999854,40.116198431530364,68.14920265146225,26.880000000000308,190.7199999999997
2,flex,42387.6,30243.6,258.11129382508085,1527.669545418815,229.11999999999972,1290.4800000000002,112.0,512.0,-17.460547987816597,66.95580207273929,0.0,78.16000000000054
2,flex,42387.6,30080.4,258.11129382508085,1380.7666855772072,229.11999999999972,1159.9199999999996,0.0,-163.1999999999971,0.0,-146.90285984160778,0.0,-130.56000000000063
2,flex,42365.2,30342.8,279.95885412016634,1402.5257787292403,247.03999999999942,1101.1200000000003,-22.400000000001455,262.3999999999978,21.847560295085486,21.759093152033074,17.919999999999703,-58.79999999999927
2,flex,42406.8,31261.4,247.1262025760455,533.7960659278125,213.7600000000006,449.2800000000003,41.60000000000582,918.6000000000022,-32.832651544120836,-868.7297128014278,-33.279999999998836,-651.84
2,flex,42259.6,30983.0,196.1158841095163,977.1796150145581,167.6800000000003,704.0,-147.20000000000437,-278.40000000000146,-51.01031846652921,443.3835490867456,-46.0800000000003,254.7199999999997
2,flex,42298.0,30067.6,261.1482337679031,1851.4655384316784,204.8,1610.4800000000002,38.400000000001455,-915.4000000000015,65.0323496583868,874.2859234171203,37.11999999999972,906.4800000000002
2,flex,42294.8,29555.4,260.6379864867119,1859.4709570197354,200.96000000000058,1622.0800000000004,-3.1999999999970896,-512.1999999999971,-0.510247281191198,8.005418588056955,-3.839999999999435,11.600000000000136
2,flex,42262.8,29590.6,295.26828478503256,1887.6152785989143,234.2399999999994,1664.3199999999997,-32.0,35.19999999999709,34.63029829832067,28.14432157917895,33.279999999998836,42.23999999999933
2,flex,42198.8,29174.6,317.97760927422553,1448.5988540655367,277.76000000000056,1184.4800000000002,-64.0,-416.0,22.709324489192966,-439.01642453337763,43.52000000000115,-479.83999999999946
2,flex,42282.0,29168.2,320.479640539064,1448.4415625078004,281.6,1179.36,83.19999999999709,-6.399999999997817,2.502031264838479,-0.1572915577362437,3.8399999999994634,-5.120000000000346
2,flex,42218.0,29939.6,240.1066429735914,978.3847096106856,230.4,874.4800000000002,-64.0,771.3999999999978,-80.37299756547262,-470.0568528971148,-51.20000000000002,-304.87999999999965
2,flex,42262.8,30551.0,275.1627881817285,833.4141827447189,266.23999999999944,723.2,44.80000000000291,611.4000000000015,35.05614520813711,-144.9705268659667,35.839999999999435,-151.2800000000002
2,flex,42419.6,30522.2,244.25036335745327,814.1720702652276,183.04000000000087,700.1599999999999,156.79999999999563,-28.799999999999272,-30.912424824275234,-19.24211247949131,-83.19999999999857,-23.04000000000019
2,flex,42531.6,30656.6,85.62616422655279,788.9541431541537,69.1199999999997,586.2400000000009,112.0,134.39999999999782,-158.62419913090048,-25.21792711107389,-113.92000000000117,-113.91999999999894
2,flex,42499.6,30698.2,127.03637274516285,712.3432880290501,103.68000000000029,519.6799999999996,-32.0,41.60000000000218,41.41020851861006,-76.61085512510363,34.560000000000585,-66.56000000000131
2,flex,42490.0,30519.0,132.71322466111778,787.2910516448461,115.2,716.8,-9.599999999998545,-179.20000000000073,5.676851915954927,74.94776361579602,11.519999999999712,197.12000000000035
2,flex,42470.8,30266.2,128.95642674854187,591.2990444774478,104.96000000000058,514.5599999999998,-19.19999999999709,-252.79999999999927,-3.7567979125759052,-195.99200716739836,-10.239999999999426,-202.24000000000012
2,flex,42406.8,30167.0,77.33149423001868,490.34192152012423,66.56000000000058,435.2,-64.0,-99.20000000000073,-51.624932518523195,-100.95712295732352,-38.39999999999999,-79.35999999999984
2,flex,42406.8,30147.8,77.33149423001868,467.50674861445793,66.56000000000058,419.84000000000015,0.0,-19.200000000000728,0.0,-22.835172905666298,0.0,-15.359999999999843
2,flex,42397.2,30355.8,91.85728060545273,283.0508081599317,74.23999999999941,227.84000000000015,-9.60000000000582,208.0,14.525786375434052,-184.45594045452623,7.679999999998827,-192.0
2,flex,42272.4,30410.2,267.46334328252624,191.30541027339308,209.9199999999997,162.55999999999986,-124.79999999999563,54.400000000001455,175.6060626770735,-91.74539788653863,135.6800000000003,-65.28000000000029
2,flex,42266.0,30419.8,263.29603111317937,186.42574929462396,204.8,151.04000000000013,-6.400000000001455,9.599999999998545,-4.1673121693468715,-4.879660978769124,-5.119999999999692,-11.519999999999726
2,flex,42195.6,30656.6,275.0138905584678,553.2021691932389,244.4800000000003,427.5199999999997,-70.40000000000146,236.79999999999927,11.717859445288411,366.7764198986149,39.68000000000029,276.47999999999956
2,flex,42224.4,30781.4,312.6516272146394,611.4931234281496,267.5199999999997,577.2800000000003,28.80000000000291,124.80000000000291,37.637736656171626,58.290954234910714,23.039999999999395,149.76000000000062
2,flex,42307.6,30259.6,360.1386399706565,1349.204743543417,334.08000000000027,1028.0800000000004,83.19999999999709,-521.8000000000029,47.48701275601712,737.7116201152674,66.56000000000057,450.80000000000007
2,flex,42438.8,29904.2,239.7652184943777,1557.4108513812475,181.7600000000006,1454.56,131.20000000000437,-355.3999999999978,-120.37342147627882,208.2061078378306,-152.31999999999968,426.47999999999956
2,flex,42413.2,30390.8,246.50387420956338,1949.2785742422857,207.36000000000058,1843.8400000000001,-25.60000000000582,486.59999999999854,6.738655715185672,391.86772286103815,25.599999999999994,389.2800000000002
2,flex,42378.0,30086.8,306.7663606067403,1836.17356478085,249.6,1600.64,-35.19999999999709,-304.0,60.26248639717693,-113.10500946143566,42.23999999999941,-243.20000000000005
2,flex,42282.0,29545.8,275.0883494441461,1796.1984745567618,217.6,1546.9599999999998,-96.0,-541.0,-31.678011162594203,-39.97509022408826,-32.0,-53.68000000000029
2,flex,42269.2,30189.2,257.8731471095453,1635.3261937607404,207.36000000000058,1377.8400000000001,-12.80000000000291,643.4000000000015,-17.215202334600804,-160.8722807960214,-10.239999999999412,-169.11999999999966
2,flex,42333.2,30544.6,320.86283673912214,1366.2132483620505,272.6399999999994,1093.5199999999998,64.0,355.3999999999978,62.989689629576844,-269.1129453986898,65.27999999999884,-284.3200000000004
2,flex,42387.6,30173.2,333.10755019978893,872.2422599254996,302.08000000000027,651.7599999999999,54.400000000001455,-371.3999999999978,12.244713460666787,-493.9709884365509,29.44000000000085,-441.7599999999999
2,flex,42464.4,30211.6,222.5323347288355,876.0464827850502,209.9199999999997,682.4800000000002,76.80000000000291,38.39999999999782,-110.57521547095342,3.8042228595505776,-92.16000000000057,30.72000000000037
2,flex,42534.8,30551.0,173.6276475671555,364.57536943689394,126.71999999999825,345.6,70.40000000000146,339.40000000000146,-48.904687161680016,-511.4711133481563,-83.20000000000145,-336.8800000000002
2,flex,42461.2,30077.4,204.7499938954363,748.5264457585411,188.1600000000006,559.3599999999991,-73.60000000000582,-473.59999999999854,31.1223463282808,383.9510763216471,61.44000000000234,213.75999999999908
2,flex,42390.8,29943.0,147.13041833576318,788.2659449703809,131.8399999999994,704.0,-70.39999999999418,-134.40000000000146,-57.61957555967311,39.73949921183987,-56.32000000000119,144.6400000000009
2,flex,42333.2,29639.0,119.4761900973629,630.5705353091339,106.23999999999941,556.8,-57.60000000000582,-304.0,-27.65422823840028,-157.69540966124703,-25.599999999999994,-147.20000000000005
2,flex,42314.0,29325.4,142.03098253533386,573.916230821114,121.6,465.91999999999973,-19.19999999999709,-313.59999999999854,22.55479243797096,-56.654304488019875,15.360000000000582,-90.88000000000022
2,flex,42285.2,29389.4,102.89878522278215,685.4725669199801,87.03999999999942,517.1199999999997,-28.80000000000291,64.0,-39.13219731255171,111.55633609886604,-34.56000000000057,51.19999999999993
2,flex,42262.8,29629.4,122.02032617478011,599.4002335667434,112.63999999999942,494.08000000000027,-22.39999999999418,240.0,19.121540951997957,-86.07233335323667,25.599999999999994,-23.039999999999395
2,flex,42275.6,29949.4,137.48832677794968,807.5547287954337,122.8800000000003,705.2800000000003,12.799999999995634,320.0,15.468000603169571,208.15449522869028,10.240000000000876,211.20000000000005
2,flex,42323.6,30215.0,169.5094097691796,801.2150772420748,161.28000000000029,697.6,48.0,265.59999999999854,32.02108299122992,-6.339651553358863,38.39999999999999,-7.680000000000291
2,flex,42426.0,30589.4,171.4316190203905,385.14495972278604,134.4,284.1599999999991,102.40000000000146,374.40000000000146,1.9222092512109157,-416.0701175192888,-26.88000000000028,-413.4400000000009
2,flex,42432.4,30221.4,170.71332695405897,819.2624976159728,126.71999999999971,715.5199999999998,6.400000000001455,-368.0,-0.7182920663315429,434.1175378931868,-7.680000000000291,431.36000000000064
2,flex,42547.6,30474.2,103.49415442411157,868.1618282325238,94.71999999999971,679.6799999999996,115.19999999999709,252.79999999999927,-67.2191725299474,48.89933061655097,-32.0,-35.840000000000146
2,flex,42493.2,30368.6,179.7135498516363,823.0036694936913,149.7600000000006,637.4400000000009,-54.400000000001455,-105.60000000000218,76.21939542752472,-45.158158738832526,55.04000000000087,-42.23999999999876
2,flex,42365.2,30224.6,300.76595552077407,810.5922772886709,264.9600000000006,666.8800000000003,-128.0,-144.0,121.05240566913778,-12.411392205020434,115.20000000000002,29.439999999999486
2,flex,42198.8,29837.4,334.30429252352815,951.2454152320074,290.56000000000057,862.7199999999997,-166.39999999999418,-387.1999999999971,33.538337002754076,140.65313794333656,25.599999999999966,195.83999999999935
2,flex,42131.6,29648.4,315.09846080227345,1203.8849778944673,248.3199999999997,1089.5199999999998,-67.20000000000437,-189.0,-19.205831721254697,252.63956266245987,-42.24000000000086,226.80000000000007
2,flex,42163.6,30247.0,373.67451077121234,2161.4721834897623,286.7199999999997,1664.4,32.0,598.5999999999985,58.57604996893889,957.587205595295,38.39999999999998,574.8800000000003
2,flex,42227.6,29946.2,398.60235824680484,2206.8641462491287,363.5199999999997,1700.2400000000002,64.0,-300.7999999999993,24.9278474755925,45.39196275936638,76.80000000000001,35.840000000000146
2,flex,42227.6,30195.8,398.60235824680484,2269.3173775388964,363.5199999999997,1999.7599999999998,0.0,249.59999999999854,0.0,62.4532312897677,0.0,299.5199999999995
2,flex,42301.2,30426.2,343.37058697584087,2166.261240017,304.6399999999994,1815.44,73.59999999999854,230.40000000000146,-55.231771270963975,-103.05613752189629,-58.88000000000028,-184.3199999999997
2,flex,42230.8,30688.8,409.2248281807463,1898.6833753946607,360.9600000000006,1605.36,-70.39999999999418,262.59999999999854,65.8542412049054,-267.57786462233935,56.32000000000119,-210.08000000000015
2,flex,42045.2,29914.2,269.142638762848,815.2404307932956,234.2399999999994,675.8400000000001,-185.60000000000582,-774.5999999999985,-140.0821894178983,-1083.442944601365,-126.72000000000119,-929.5199999999998
2,flex,41946.0,30576.6,142.75013134811692,1108.3554664456856,115.2,971.5199999999998,-99.19999999999709,662.3999999999978,-126.39250741473106,293.11503565239,-119.03999999999941,295.6799999999996
2,flex,42010.0,30381.4,169.02544187164438,1056.4168874076113,140.8,778.2400000000009,64.0,-195.1999999999971,26.275310523527452,-51.938579038074295,25.60000000000001,-193.27999999999884
2,flex,42061.2,31258.4,235.45564338136708,1827.3989821601526,202.2399999999994,1636.0800000000004,51.19999999999709,877.0,66.4302015097227,770.9820947525413,61.4399999999994,857.8399999999995
2,flex,42269.2,31856.8,306.66620289834,1496.6651462501366,266.23999999999944,1268.64,208.0,598.3999999999978,71.21055951697289,-330.73383591001607,64.00000000000003,-367.4400000000003
2,flex,42282.0,31645.6,293.28484447717375,1758.308687347036,256.0,1522.0800000000004,12.80000000000291,-211.20000000000073,-13.381358421166226,261.6435410968995,-10.23999999999944,253.44000000000028
2,flex,42272.4,31434.4,302.6665491918845,1726.9185968075953,263.6800000000003,1418.4800000000002,-9.599999999998545,-211.1999999999971,9.381704714710736,-31.390090539440735,7.680000000000291,-103.60000000000014
2,flex,42282.0,31748.0,301.03820355562846,1628.1771402399531,256.0,1207.2,9.599999999998545,313.59999999999854,-1.6283456362560287,-98.74145656764222,-7.680000000000291,-211.2800000000002
2,flex,42211.6,30839.0,300.28892753489464,1163.1460785301012,241.9199999999997,1094.4,-70.40000000000146,-909.0,-0.7492760207338165,-465.0310617098519,-14.080000000000297,-112.79999999999995
2,flex,42157.2,30330.2,200.96407639282106,1034.2190096879476,176.63999999999942,983.0400000000002,-54.400000000001455,-508.7999999999993,-99.32485114207358,-128.92706884215363,-65.28000000000029,-111.3599999999999
2,flex,42314.0,30643.8,295.89187214251086,870.9292508580187,262.4,784.6400000000001,156.8000000000029,313.59999999999854,94.9277957496898,-163.28975882992893,85.76000000000056,-198.4000000000001
2,flex,42362.0,30407.0,250.95019426172996,828.1140018137312,224.0,723.2,48.0,-236.79999999999927,-44.9416778807809,-42.8152490442875,-38.39999999999998,-61.440000000000055
2,flex,42419.6,29824.6,251.6836109088252,604.3342121707436,225.28000000000029,485.1199999999997,57.599999999998545,-582.4000000000015,0.7334166470952255,-223.77978964298757,1.2800000000002854,-238.08000000000033
2,flex,42470.8,30512.8,196.06366312899826,1461.6331140201132,163.8399999999994,1170.1599999999999,51.200000000004366,688.2000000000007,-55.61994777982693,857.2989018493696,-61.44000000000088,685.0400000000002
2,flex,42454.8,30695.2,195.802349321208,1390.3876294040706,162.56000000000057,1024.2400000000002,-16.0,182.40000000000146,-0.26131380779025903,-71.24548461604263,-1.2799999999988358,-145.91999999999962
2,flex,42432.4,31668.2,160.82984797534044,2423.919256080933,135.6800000000003,2191.84,-22.400000000001455,973.0,-34.972501345867556,1033.5316266768623,-26.88000000000028,1167.6
2,flex,42509.2,31370.4,118.61601915520889,2678.0378339373524,104.96000000000058,2430.0800000000004,76.79999999999563,-297.7999999999993,-42.21382882013155,254.1185778564195,-30.719999999999715,238.24000000000024
2,flex,42538.0,30759.0,138.0086953785716,3412.4966813170713,128.0,2919.2,28.80000000000291,-611.4000000000015,19.3926762233627,734.4588473797189,23.039999999999424,489.11999999999944
2,flex,42534.8,29875.6,142.8935267942686,3239.8086733633095,131.8399999999994,2556.72,-3.1999999999970896,-883.4000000000015,4.884831415697022,-172.68800795376183,3.8399999999994066,-362.48
2,flex,42464.4,30666.2,235.71643981651155,3740.1334949437223,216.3199999999997,3505.44,-70.40000000000146,790.6000000000022,92.82291302224294,500.32482158041284,84.4800000000003,948.7200000000003
2,flex,42413.2,29584.4,213.08251922746794,2812.196621859843,176.63999999999942,2207.28,-51.200000000004366,-1081.7999999999993,-22.633920589043612,-927.9368730838792,-39.68000000000029,-1298.1599999999999
2,flex,42422.8,29744.6,221.563895975727,2773.9977361202114,188.1600000000006,2079.12,9.60000000000582,160.1999999999971,8.481376748259066,-38.198885739631805,11.520000000001176,-128.1600000000003
2,flex,42416.4,30493.6,214.32834623508504,2036.3940286693303,180.4800000000003,1584.9599999999991,-6.400000000001455,749.0,-7.2355497406419715,-737.6037074508811,-7.680000000000291,-494.16000000000076
2,flex,42525.2,30573.6,266.46605787665385,1973.5664772183645,226.56000000000057,1552.9599999999991,108.79999999999563,80.0,52.13771164156881,-62.82755145096576,46.08000000000027,-32.0
2,flex,42640.4,30067.8,141.88671537502788,995.4211972829057,94.71999999999971,808.9599999999998,115.20000000000437,-505.7999999999993,-124.57934250162597,-978.1452799354588,-131.84000000000086,-743.9999999999993
2,flex,42563.6,30528.6,281.27253687526616,1410.8915762736983,215.04000000000087,1361.9199999999996,-76.80000000000291,460.7999999999993,139.38582150023828,415.4703789907926,120.32000000000116,552.9599999999998
2,flex,42483.6,30618.2,305.6963198997462,1349.1861843348436,282.8800000000003,1290.2400000000002,-80.0,89.60000000000218,24.42378302448003,-61.705391938854746,67.8399999999994,-71.67999999999938
2,flex,42429.2,30381.2,295.2682847854363,1586.412354969529,259.8399999999994,1479.8400000000001,-54.400000000001455,-237.0,-10.428035114309864,237.22617063468533,-23.040000000000873,189.5999999999999
2,flex,42426.0,31303.0,290.6544339933592,1913.718161067624,256.0,1728.4,-3.1999999999970896,921.7999999999993,-4.61385079207713,327.305806098095,-3.8399999999994066,248.55999999999995
2,flex,42387.6,30342.8,270.5088538291526,2480.3071906520186,209.9199999999997,2246.96,-38.400000000001455,-960.2000000000007,-20.145580164206592,566.5890295843947,-46.0800000000003,518.56
2,flex,42467.6,29965.2,202.2845520546783,2250.933441930235,149.75999999999914,1793.8400000000001,80.0,-377.59999999999854,-68.2243017744743,-229.3737487217836,-60.160000000000565,-453.1199999999999
2,flex,42541.2,30384.4,167.9314145723681,2381.284745678232,144.63999999999942,2081.9199999999996,73.59999999999854,419.2000000000007,-34.35313748231019,130.351303747997,-5.11999999999972,288.0799999999995
2,flex,42429.2,30038.8,339.01881953695266,2737.4488415311225,245.7600000000006,2496.6400000000003,-112.0,-345.6000000000022,171.08740496458455,356.16409585289057,101.12000000000117,414.7200000000007
2,flex,42298.0,29341.0,274.7158532009981,2058.361970111185,236.8,1938.4,-131.1999999999971,-697.7999999999993,-64.30296633595458,-679.0868714199373,-8.960000000000576,-558.2400000000002
2,flex,42310.8,29818.0,283.2316366503025,1741.7979216889655,247.03999999999942,1366.0,12.80000000000291,477.0,8.515783449304422,-316.5640484222197,10.239999999999412,-572.4000000000001
2,flex,42278.8,29530.0,277.38666153882866,1699.4504994262115,226.56000000000057,1264.8,-32.0,-288.0,-5.844975111473843,-42.34742226275398,-20.479999999998853,-101.20000000000005
2,flex,42269.2,29805.4,266.6581331971354,2126.1686292483864,215.03999999999942,1595.2800000000002,-9.60000000000582,275.40000000000146,-10.728528341693277,426.7181298221749,-11.520000000001147,330.48000000000025
2,flex,42288.4,29975.0,235.0639062036608,1893.591825077411,199.6800000000003,1459.6,19.200000000004366,169.59999999999854,-31.594226993474592,-232.5768041709755,-15.359999999999133,-135.6800000000003
2,flex,42358.8,30032.6,246.296081982138,1906.3005639195915,215.03999999999942,1528.7199999999998,70.40000000000146,57.599999999998545,11.232175778477199,12.708738842180537,15.359999999999133,69.11999999999989
2,flex,42326.8,30263.0,233.05141063679432,1898.9379136770237,189.43999999999943,1504.4,-32.0,230.40000000000146,-13.244671345343676,-7.3626502425677245,-25.599999999999994,-24.31999999999971
2,flex,42314.0,29824.4,237.74944794878562,2302.556891805258,204.8,2030.7199999999998,-12.80000000000291,-438.59999999999854,4.6980373119913,403.6189781282344,15.360000000000582,526.3199999999997
2,flex,42317.2,29584.2,241.04306669188574,1962.9738052251148,207.36000000000058,1838.56,3.1999999999970896,-240.20000000000073,3.293618743100126,-339.58308658014334,2.5600000000005707,-192.15999999999985
2,flex,42384.4,30032.4,148.23980572019735,1685.3822830443953,135.6800000000003,1300.7199999999998,67.20000000000437,448.2000000000007,-92.80326097168839,-277.5915221807195,-71.68000000000029,-537.8400000000001
2,flex,42275.6,30503.0,189.4767531916705,2056.58367201531,152.3199999999997,1677.2,-108.80000000000291,470.59999999999854,41.236947471473144,371.2013889709149,16.639999999999418,376.48000000000025
2,flex,42256.4,29811.6,184.5487469478174,2433.192191340423,129.28000000000029,2166.3199999999997,-19.19999999999709,-691.4000000000015,-4.928006243853105,376.60851932511287,-23.039999999999424,489.11999999999966
2,flex,42269.2,30298.2,182.54029692108574,2035.907208101579,120.31999999999826,1777.0400000000002,12.799999999995634,486.6000000000022,-2.0084500267316514,-397.284983238844,-8.960000000002026,-389.2799999999995
2,flex,42262.8,29181.2,172.1469140006372,2251.223436267471,112.63999999999942,1848.9599999999998,-6.399999999994179,-1117.0,-10.393382920448545,215.31622816589174,-7.6799999999988415,71.91999999999962
2,flex,42326.8,30317.4,210.66599155973753,3411.1138122320012,181.7600000000006,3106.0800000000004,64.0,1136.2000000000007,38.51907755910034,1159.8903759645304,69.12000000000117,1257.1200000000006
2,flex,42470.8,29923.6,177.41972832735385,3194.7149231191283,163.8399999999994,2633.5199999999995,144.0,-393.8000000000029,-33.24626323238368,-216.3988891128729,-17.92000000000118,-472.56000000000085
2,flex,42525.2,29904.4,145.02744567934914,3211.2355628324613,103.68000000000174,2648.88,54.39999999999418,-19.19999999999709,-32.39228264800471,16.520639713332912,-60.159999999997666,15.360000000000582
2,flex,42598.8,29536.2,67.42818401606527,3345.317348174903,60.16000000000058,2943.44,73.60000000000582,-368.2000000000007,-77.59926166328387,134.0817853424419,-43.52000000000116,294.55999999999995
2,flex,42448.4,29789.0,336.62418213775754,3151.0105045842115,264.9599999999991,2741.2,-150.40000000000146,252.79999999999927,269.19599812169224,-194.30684359069164,204.79999999999853,-202.24000000000024
2,flex,42416.4,29699.4,331.103367545631,2990.176021574627,254.71999999999971,2633.6800000000003,-32.0,-89.59999999999854,-5.5208145921265555,-160.83448300958435,-10.239999999999412,-107.51999999999953
2,flex,42314.0,28736.0,301.03820355562846,3200.3324827273805,256.0,2518.4,-102.40000000000146,-963.4000000000015,-30.06516399000253,210.1564611527533,1.2800000000002854,-115.2800000000002
2,flex,42256.4,28649.6,279.44630969116326,3248.532074645406,212.4800000000003,2552.959999999999,-57.599999999998545,-86.40000000000146,-21.59189386446519,48.19959191802536,-43.5199999999997,34.559999999999036
2,flex,42102.8,28736.0,237.6202011612125,3225.2885762362375,221.43999999999943,2518.4,-153.59999999999854,86.40000000000146,-41.82610852995077,-23.243498409168296,8.959999999999127,-34.559999999999036
2,flex,42106.0,29433.8,233.40265636867184,3322.81702174526,217.6,2980.56,3.1999999999970896,697.7999999999993,-4.21754479254065,97.52844550902228,-3.839999999999435,462.15999999999985
2,flex,42154.0,29251.4,304.7569523406354,3021.914730762598,256.0,2761.6800000000003,48.0,-182.39999999999782,71.35429597196355,-300.9022909826617,38.400000000000006,-218.87999999999965
2,flex,42112.4,29760.4,309.52453860690724,2644.764533942471,270.08000000000027,2354.4800000000005,-41.599999999998545,509.0,4.767586266271849,-377.1501968201269,14.080000000000268,-407.1999999999998
2,flex,42064.4,30659.8,303.0046864322632,2164.6800595007085,234.24000000000086,1841.0400000000002,-48.0,899.3999999999978,-6.519852174644029,-480.0844744417627,-35.83999999999941,-513.4400000000003
2,flex,42205.2,31770.6,339.4715893860288,1948.5264791631796,323.8399999999994,1668.3199999999997,140.79999999999563,1110.7999999999993,36.46690295376561,-216.15358033752887,89.59999999999854,-172.72000000000048
2,flex,42326.8,30624.8,276.27696248474956,3186.9113197577353,259.8399999999994,2805.04,121.60000000000582,-1145.7999999999993,-63.194626901279264,1238.3848405945557,-64.0,1136.7200000000003
2,flex,42291.6,29424.4,241.9335445946936,2743.896543239174,231.6800000000003,2367.28,-35.200000000004366,-1200.3999999999978,-34.343417890055974,-443.0147765185611,-28.159999999999116,-437.75999999999976
2,flex,42307.6,30611.8,223.67977110169105,3376.161631201921,212.4800000000003,3019.04,16.0,1187.3999999999978,-18.25377349300254,632.2650879627467,-19.19999999999999,651.7599999999998
2,flex,42413.2,31034.4,178.28336994873237,3548.07652679587,136.96000000000058,3357.12,105.59999999999854,422.6000000000022,-45.396401152958674,171.91489559394904,-75.51999999999973,338.0799999999999
2,flex,42390.8,30339.8,163.60733479785273,3311.4507032417064,126.71999999999825,2889.7599999999998,-22.39999999999418,-694.6000000000022,-14.676035150879642,-236.62582355416362,-10.240000000002325,-467.3600000000001
2,flex,42454.8,30746.2,213.56254353186497,2782.032091835021,152.31999999999826,2564.6400000000003,64.0,406.40000000000146,49.955208734012245,-529.4186114066852,25.60000000000001,-325.11999999999944
2,flex,42365.2,31076.0,272.5453356788125,2537.954688326803,252.1600000000006,2300.8,-89.60000000000582,329.7999999999993,58.9827921469475,-244.07740350821814,99.84000000000233,-263.84000000000015
2,flex,42432.4,30810.4,230.6665125234338,2200.6679531451214,171.5199999999997,1982.0800000000004,67.20000000000437,-265.59999999999854,-41.87882315537868,-337.2867351816817,-80.6400000000009,-318.7199999999998
2,flex,42352.4,30544.6,248.81929185600427,1951.52397884321,216.3199999999997,1663.1199999999997,-80.0,-265.8000000000029,18.152779332570475,-249.14397430191138,44.80000000000001,-318.9600000000007
2,flex,42243.6,27907.2,293.73838700491285,5820.387938960769,261.1199999999997,4516.96,-108.80000000000291,-2637.399999999998,44.91909514890858,3868.863960117559,44.80000000000001,2853.84
2,flex,42141.2,29322.0,169.14656366648776,6402.031146440944,138.2399999999994,4956.0,-102.40000000000146,1414.7999999999993,-124.59182333842509,581.6432074801751,-122.88000000000031,439.03999999999996
2,flex,42246.8,28381.0,221.10124377703542,6609.874189422969,188.1600000000006,5907.2,105.60000000000582,-941.0,51.954680110547656,207.8430429820246,49.92000000000118,951.1999999999998
2,flex,42310.8,27417.4,293.52914676341203,6160.1758286594295,264.9600000000006,5136.32,64.0,-963.5999999999985,72.42790298637661,-449.6983607635393,76.80000000000001,-770.8800000000001
2,flex,42294.8,26178.8,304.4880293210223,5730.081549157923,277.76000000000056,4310.5599999999995,-16.0,-1238.6000000000022,10.958882557610252,-430.0942795015062,12.799999999999955,-825.7600000000002
2,flex,42291.6,30346.2,308.5304523057033,5023.195891063768,280.3199999999997,4696.24,-3.2000000000043656,4167.4000000000015,4.042422984681025,-706.8856580941556,2.5599999999991496,385.6800000000003
2,flex,42333.2,29946.0,309.822142527336,4734.677391333014,284.1600000000006,4216.0,41.599999999998545,-400.2000000000007,1.2916902216326775,-288.5184997307533,3.8400000000008845,-480.2399999999998
2,flex,42221.2,30963.8,310.9767836996537,4076.6367216125645,285.43999999999943,3401.7599999999998,-112.0,1017.7999999999993,1.1546411723177243,-658.0406697204498,1.2799999999988358,-814.2400000000002
2,flex,42224.4,30749.4,316.23383753152376,4227.549862509006,289.2800000000003,3573.28,3.2000000000043656,-214.39999999999782,5.257053831870053,150.9131408964413,3.8400000000008845,171.52000000000044
2,flex,42214.8,30963.8,321.81883102126744,3989.8828754739175,296.9600000000006,3401.7599999999998,-9.599999999998545,214.39999999999782,5.584993489743681,-237.66698703508837,7.680000000000291,-171.52000000000044
2,flex,42269.2,30416.4,284.49421786749576,3109.247407331867,253.43999999999943,2744.88,54.39999999999418,-547.3999999999978,-37.32461315377168,-880.6354681420503,-43.520000000001176,-656.8799999999997
2,flex,42147.6,30099.6,319.29522389171,2940.3099564501676,248.3199999999997,2385.28,-121.59999999999854,-316.8000000000029,34.801006024214246,-168.93745088169953,-5.11999999999972,-359.5999999999999
2,flex,42224.4,29389.0,319.29522389133666,3254.5633194024626,270.08000000000027,2933.2,76.80000000000291,-710.5999999999985,-3.7334757507778704e-10,314.253362952295,21.76000000000056,547.9199999999996
2,flex,42150.8,30454.8,216.42033176148686,3300.285648243196,189.43999999999943,2989.44,-73.59999999999854,1065.7999999999993,-102.8748921298498,45.72232884073355,-80.64000000000084,56.24000000000024
2,flex,42310.8,30758.8,322.7719938280768,3010.4044512324317,253.43999999999943,2624.6400000000003,160.0,304.0,106.35166206658994,-289.8811970107645,64.0,-364.7999999999997
2,flex,42336.4,29318.4,315.5855510000569,2247.5117441294856,222.71999999999971,2067.6800000000003,25.599999999998545,-1440.3999999999978,-7.186442828019892,-762.8927071029461,-30.719999999999715,-556.96
2,flex,42406.8,30054.6,215.47194712966098,3132.3438891667065,161.28000000000173,2951.12,70.40000000000146,736.1999999999971,-100.11360387039593,884.8321450372209,-61.43999999999798,883.4399999999996
2,flex,42416.4,32397.6,215.0438094898669,3946.206613952202,161.28000000000029,3442.88,9.599999999998545,2343.0,-0.42813763979407327,813.8627247854956,-1.4495071809506044e-12,491.7600000000002
2,flex,42323.6,31623.2,296.3414247118481,4178.654491579798,235.5199999999997,3930.6400000000003,-92.80000000000291,-774.3999999999978,81.2976152219812,232.44787762759552,74.23999999999941,487.7600000000002
2,flex,42262.8,31261.6,208.46716767861258,4510.60575089422,176.63999999999942,4219.92,-60.799999999995634,-361.6000000000022,-87.87425703323552,331.9512593144227,-58.88000000000028,289.27999999999975
2,flex,42243.6,31703.4,208.76168230854924,4253.722068965007,177.9199999999997,3866.4800000000005,-19.200000000004366,441.8000000000029,0.294514629936657,-256.8836819292137,1.2800000000002854,-353.4399999999996
2,flex,42326.8,30954.4,242.94723706940295,3969.807128816193,215.03999999999942,2967.6800000000003,83.20000000000437,-749.0,34.185554760853705,-283.91494014881346,37.11999999999972,-898.8000000000002
2,flex,42307.6,28387.4,238.0937630432702,2082.8519486511495,199.6800000000003,1898.7199999999998,-19.200000000004366,-2567.0,-4.853474026132744,-1886.9551801650437,-15.359999999999133,-1068.9600000000005
2,flex,42326.8,30093.4,207.48243299084317,4192.310513308853,176.63999999999942,3285.28,19.200000000004366,1706.0,-30.611330052427036,2109.4585646577034,-23.040000000000873,1386.5600000000004
2,flex,42259.6,30240.6,192.42619364356972,4076.6360936438946,158.71999999999971,3167.5199999999995,-67.20000000000437,147.1999999999971,-15.056239347273447,-115.67441966495835,-17.919999999999703,-117.76000000000067
2,flex,42253.2,29539.6,194.75358790090766,4343.640067961442,163.8399999999994,3728.3199999999997,-6.400000000001455,-701.0,2.327394257337943,267.0039743175471,5.119999999999692,560.8000000000002
2,flex,42237.2,29853.2,168.2360246807203,4492.87878314116,144.63999999999942,4104.64,-16.0,313.6000000000022,-26.517563220187355,149.23871517971838,-19.19999999999999,376.3200000000006
2,flex,42256.4,30999.0,182.59638550655163,3925.707834263778,167.6800000000003,3271.2,19.200000000004366,1145.7999999999993,14.360360825831322,-567.1709488773822,23.040000000000873,-833.4400000000005
2,flex,42346.0,29132.8,145.94245441285304,2346.6753844535324,140.8,2209.7599999999998,89.59999999999854,-1866.2000000000007,-36.65393109369859,-1579.0324498102455,-26.88000000000028,-1061.44
2,flex,42336.4,30390.8,158.26256664152092,2681.528027077111,152.3199999999997,2477.44,-9.599999999998545,1258.0,12.320112228667881,334.8526426235785,11.519999999999698,267.6800000000003
2,flex,42301.2,30726.8,204.24925948514203,2247.3110510118618,194.56000000000057,2074.2400000000002,-35.200000000004366,336.0,45.986692843621114,-434.2169760652491,42.24000000000086,-403.1999999999998
2,flex,42224.4,31143.0,183.99304334626024,2699.7032429509773,174.0800000000003,2407.2,-76.79999999999563,416.2000000000007,-20.256216138881797,452.3921919391155,-20.480000000000274,332.9599999999996
2,flex,42230.8,31988.0,191.30541027308152,3201.9771392063412,181.7600000000006,3083.2,6.400000000001455,845.0,7.312366926821284,502.273896255364,7.680000000000291,676.0
2,flex,42202.0,30227.6,163.79499381834694,6041.48304971554,147.2,5195.68,-28.80000000000291,-1760.4000000000015,-27.51041645473458,2839.5059105091987,-34.5600000000006,2112.4800000000005
2,flex,42323.6,27715.0,257.91285349939477,6702.669080299277,216.3199999999997,6066.0,121.59999999999854,-2512.5999999999985,94.11785968104783,661.1860305837372,69.11999999999972,870.3199999999997
2,flex,42365.2,27888.0,214.51936975523026,6724.44367959164,183.03999999999942,6204.4,41.599999999998545,173.0,-43.39348374416451,21.774599292362836,-33.280000000000285,138.39999999999964
2,flex,42416.4,26268.4,177.7656884774632,5810.485370431621,142.0800000000003,4908.719999999999,51.200000000004366,-1619.5999999999985,-36.75368127776707,-913.9583091600189,-40.95999999999913,-1295.6800000000003
2,flex,42374.8,26931.0,187.24785712993366,6903.730730554314,143.36000000000058,5584.8,-41.599999999998545,662.5999999999985,9.482168652470477,1093.2453601226925,1.2800000000002854,676.0800000000008
2,flex,42454.8,29898.2,225.6850903355205,6108.055644802198,213.7600000000006,5214.64,80.0,2967.2000000000007,38.437233205586836,-795.6750857521156,70.4,-370.15999999999985
2,flex,42314.0,30983.2,229.64320151051717,4768.265907014833,185.6,4346.64,-140.8000000000029,1085.0,3.9581111749966738,-1339.789737787365,-28.160000000000593,-868.0
2,flex,42390.8,31652.0,243.1578910908549,4688.120689572745,207.36000000000058,4120.0,76.80000000000291,668.7999999999993,13.514689580337716,-80.14521744208832,21.760000000000588,-226.64000000000033
2,flex,42435.6,32916.4,256.91835278975356,3938.5058385128755,238.0800000000003,2800.0800000000004,44.799999999995634,1264.4000000000015,13.760461698898666,-749.6148510598691,30.719999999999715,-1319.9199999999996
2,flex,42422.8,31978.6,267.233530829782,2845.6249647485274,253.43999999999943,2216.2400000000007,-12.799999999995634,-937.8000000000029,10.315178040028457,-1092.880873764348,15.359999999999133,-583.8399999999997
2,flex,42269.2,29824.4,276.27696248518106,4191.86748836361,259.8399999999994,3957.5199999999995,-153.60000000000582,-2154.199999999997,9.043431655399047,1346.242523615083,6.399999999999977,1741.2799999999988
2,flex,42294.8,30615.0,257.87314710862074,3836.3225620377584,239.36000000000058,3008.8,25.60000000000582,790.5999999999985,-18.403815376560317,-355.544926325852,-20.479999999998824,-948.7199999999993
2,flex,42272.4,30800.8,235.49912950938003,3940.470804358277,212.4800000000003,3157.44,-22.400000000001455,185.79999999999927,-22.374017599240716,104.14824232051842,-26.88000000000028,148.63999999999987
2,flex,42304.4,29962.2,283.98985897346955,3852.2276879748383,250.88000000000028,3164.96,32.0,-838.5999999999985,48.490729464089526,-88.24311638343852,38.39999999999998,7.519999999999982
2,flex,42365.2,29571.6,284.67412948909134,3500.264995682481,252.1600000000006,2852.4800000000005,60.799999999995634,-390.6000000000022,0.6842705156217903,-351.96269229235713,1.2800000000003138,-312.47999999999956
2,flex,42368.4,31220.0,279.9954285337866,1581.3222315518112,248.3199999999997,1341.6,3.2000000000043656,1648.4000000000015,-4.678700955304748,-1918.94276413067,-3.8400000000008845,-1510.8800000000006
2,flex,42291.6,30407.0,367.3176282184256,2548.020800543041,340.4800000000003,2317.2,-76.80000000000291,-813.0,87.32219968463903,966.6985689912296,92.1600000000006,975.5999999999999
2,flex,42160.4,30970.2,394.859772577569,3328.428301766454,372.4800000000003,2767.7599999999998,-131.1999999999971,563.2000000000007,27.54214435914338,780.407501223413,32.0,450.55999999999995
2,flex,42099.6,30752.4,312.32393440184495,3501.3225272745067,299.5199999999997,3029.12,-60.80000000000291,-217.79999999999927,-82.53583817572405,172.89422550805284,-72.9600000000006,261.3600000000001
2,flex,42176.4,30362.0,425.56390824395163,3437.2022925629535,391.6800000000003,2801.2,76.80000000000291,-390.40000000000146,113.23997384210668,-64.12023471155317,92.1600000000006,-227.92000000000007
2,flex,42291.6,31315.8,429.8732836545694,4211.495525344893,398.08000000000027,3945.7599999999998,115.19999999999709,953.7999999999993,4.309375410617747,774.2932327819399,6.399999999999977,1144.56
2,flex,42429.2,31261.4,342.0259639270517,4276.847231314208,244.48000000000175,3989.28,137.59999999999854,-54.39999999999782,-87.84731972751769,65.35170596931493,-153.59999999999852,43.52000000000044
2,flex,42477.2,30589.4,259.8510342492783,3674.682005289698,183.03999999999942,3182.88,48.0,-672.0,-82.17492967777338,-602.1652260245105,-61.44000000000233,-806.4000000000001
2,flex,42490.0,30295.0,260.1661007896597,3950.5188519990697,185.6,3418.4,12.80000000000291,-294.40000000000146,0.3150665403813946,275.8368467093719,2.5600000000005707,235.51999999999998
2,flex,42394.0,29469.2,175.5630940718902,4309.54895087641,134.4,4079.04,-96.0,-825.7999999999993,-84.60300671776952,359.0300988773406,-51.19999999999999,660.6399999999999
2,flex,42403.6,29738.2,184.27110462618003,4748.862027896783,142.0800000000003,4401.84,9.599999999998545,269.0,8.708010554289842,439.3130770203725,7.680000000000291,322.8000000000002
2,flex,42301.2,31495.4,254.47546050695905,4685.610466097234,239.36000000000058,4333.92,-102.40000000000146,1757.2000000000007,70.20435588077902,-63.251561799548654,97.28000000000029,-67.92000000000007
2,flex,42358.8,30467.8,223.6339866827245,4845.733892817479,170.2399999999994,4630.96,57.60000000000582,-1027.6000000000022,-30.841473824234555,160.12342672024442,-69.12000000000117,297.03999999999996
2,flex,42291.6,30016.4,214.80558651966484,5311.190021078133,180.4800000000003,4992.08,-67.20000000000437,-451.3999999999978,-8.828400163059655,465.4561282606546,10.24000000000089,361.1199999999999
2,flex,42192.4,30618.2,255.3190944674443,4984.950607578769,218.88000000000028,4510.64,-99.19999999999709,601.7999999999993,40.51350794777946,-326.23941349936376,38.39999999999998,-481.4399999999996
2,flex,42102.8,29821.2,163.60733479858138,4018.1111681982984,144.63999999999942,3554.2400000000002,-89.59999999999854,-797.0,-91.71175966886292,-966.839439380471,-74.24000000000086,-956.4000000000001
2,flex,42112.4,29312.2,155.32366207316514,3474.5363661933256,133.11999999999972,2943.44,9.599999999998545,-509.0,-8.283672725416238,-543.5748020049728,-11.519999999999698,-610.8000000000002
2,flex,42144.4,29962.0,207.77834343336693,3409.8621673023677,161.28000000000029,2806.4,32.0,649.7999999999993,52.45468136020179,-64.674198890958,28.160000000000565,-137.03999999999996
2,flex,42147.6,30064.4,208.51628233776339,3228.4508730968546,165.11999999999972,2683.5199999999995,3.1999999999970896,102.40000000000146,0.7379389043964579,-181.41129420551306,3.839999999999435,-122.88000000000056
2,flex,42227.6,29769.8,170.71332695475726,3373.267104751718,139.5199999999997,3037.04,80.0,-294.6000000000022,-37.80295538300612,144.81623165486326,-25.600000000000023,353.52000000000044
2,flex,42173.2,30102.6,225.23090374164147,3798.67190475831,194.56000000000057,3303.28,-54.400000000001455,332.7999999999993,54.517576786884206,425.40480000659227,55.04000000000087,266.24000000000024
2,flex,42230.8,28627.2,208.2214206070283,4082.6210894473074,157.43999999999943,3606.6400000000003,57.60000000000582,-1475.3999999999978,-17.009483134613163,283.9491846889973,-37.12000000000114,303.3600000000001
2,flex,42275.6,29357.0,275.757574691992,4705.670876718853,193.28000000000029,4482.4,44.799999999995634,729.7999999999993,67.53615408496367,623.0497872715455,35.840000000000856,875.7599999999993
2,flex,42378.0,29536.4,320.79900249221475,4526.539234337855,275.2,4338.88,102.40000000000146,179.40000000000146,45.04142780022278,-179.13164238099762,81.9199999999997,-143.51999999999953
2,flex,42445.2,30752.8,331.9990361437393,4647.044411236039,296.9600000000006,4520.64,67.19999999999709,1216.3999999999978,11.200033651524564,120.50517689818389,21.760000000000616,181.76000000000022
2,flex,42432.4,29511.0,354.5507580019695,4042.3653471699,312.3199999999997,3674.4,-12.799999999995634,-1241.7999999999993,22.551721858230167,-604.6790640661393,15.359999999999104,-846.2400000000002
2,flex,42374.8,31341.8,395.3521974137681,3595.8731012092203,381.43999999999943,3301.84,-57.599999999998545,1830.7999999999993,40.80143941179864,-446.4922459606796,69.11999999999972,-372.55999999999995
2,flex,42253.2,28489.8,359.2561203379513,5202.275901949075,336.6399999999994,4554.24,-121.60000000000582,-2852.0,-36.09607707581682,1606.4028007398547,-44.80000000000001,1252.3999999999996
2,flex,42266.0,30141.4,376.1871874478879,5233.737922364855,352.0,4332.719999999999,12.80000000000291,1651.6000000000022,16.931067109936578,31.46202041577999,15.360000000000582,-221.52000000000044
2,flex,42256.4,30288.6,367.17821286115844,5339.351256473022,340.4800000000003,4450.4800000000005,-9.599999999998545,147.1999999999971,-9.008974586729437,105.61333410816678,-11.519999999999698,117.76000000000113
2,flex,42403.6,29898.0,296.16860063172226,5478.493223505894,276.4800000000003,4919.2,147.1999999999971,-390.59999999999854,-71.00961222943619,139.14196703287234,-64.0,468.71999999999935
2,flex,42467.6,28640.0,227.31264813019502,5083.538137950772,199.6800000000003,4256.0,64.0,-1258.0,-68.85595250152724,-394.9550855551224,-76.80000000000001,-663.1999999999998
2,flex,42509.2,30000.4,172.74073057658845,3251.9850922167466,149.7600000000006,3167.6800000000003,41.599999999998545,1360.4000000000015,-54.57191755360657,-1831.553045734025,-49.9199999999997,-1088.3199999999997
2,flex,42445.2,29776.2,108.70584161063547,3031.0921068156104,98.56000000000058,2898.6400000000003,-64.0,-224.20000000000073,-64.03488896595297,-220.89298540113623,-51.2,-269.03999999999996
2,flex,42445.2,28803.2,108.70584161063547,2005.7977365626732,98.56000000000058,1731.0400000000002,0.0,-973.0,0.0,-1025.2943702529371,0.0,-1167.6000000000001
2,flex,42445.2,29117.0,108.70584161063547,1845.1726206509786,98.56000000000058,1480.0,0.0,313.7999999999993,0.0,-160.6251159116946,0.0,-251.0400000000002
2,flex,42445.2,29462.8,108.70584161063547,1720.3739593472292,98.56000000000058,1222.64,0.0,345.7999999999993,0.0,-124.79866130374944,0.0,-257.3599999999999
2,flex,42483.6,30074.2,94.16920940600801,1256.1538759244672,78.0800000000003,976.6400000000001,38.400000000001455,611.4000000000015,-14.536632204627466,-464.22008342276195,-20.480000000000288,-246.0
2,flex,42470.8,29053.2,100.88884972931528,975.4163008685257,93.43999999999942,811.7599999999999,-12.799999999995634,-1021.0,6.719640323307274,-280.73757505594153,15.359999999999118,-164.88000000000022
2,flex,42448.4,29869.4,83.81312546293978,2088.8943103948122,75.51999999999971,1608.0800000000004,-22.400000000001455,816.2000000000007,-17.075724266375502,1113.4780095262865,-17.919999999999703,796.3200000000005
2,flex,42378.0,30948.0,119.30465204636671,2573.254048864973,102.4,2339.2,-70.40000000000146,1078.5999999999985,35.49152658342693,484.35973847016066,26.880000000000294,731.1199999999994
2,flex,42454.8,30634.2,167.3205307182816,2813.7838154343012,131.8399999999994,2590.2400000000002,76.80000000000291,-313.7999999999993,48.01587867191488,240.52976656932833,29.4399999999994,251.04000000000042
3,flex,41946.0,30055.0,0.0,0.0,0.0,0.0,41946.0,30055.0,0.0,0.0,0.0,0.0
3,flex,42298.0,30463.0,352.0,408.0,352.0,408.0,352.0,408.0,352.0,408.0,352.0,408.0
3,flex,42378.0,30513.666666666668,308.8732210256275,340.74950069235575,288.0,305.7777777777774,80.0,50.66666666666788,-43.126778974372485,-67.25049930764425,-64.0,-102.22222222222263
3,flex,42262.0,30139.0,334.5444664017027,712.8870878336905,332.0,604.0,-116.0,-374.6666666666679,25.671245376075206,372.1375871413348,44.0,298.2222222222226
3,flex,42262.8,30067.8,299.22994502546493,653.333115646288,266.23999999999944,540.1599999999999,0.8000000000029104,-71.20000000000073,-35.31452137623779,-59.553972187402564,-65.76000000000056,-63.840000000000146
3,flex,42262.8,30170.2,299.22994502546493,682.7633264901325,266.23999999999944,616.9599999999998,0.0,102.40000000000146,0.0,29.43021084384452,0.0,76.79999999999995
3,flex,42272.4,30173.4,311.9958974086339,686.0698506711356,276.4800000000003,619.5199999999998,9.599999999998545,3.2000000000007276,12.765952383168951,3.3065241810030557,10.240000000000862,2.5599999999999454
3,flex,42189.2,29914.2,284.31419240020574,714.4962981010036,234.2399999999994,650.2400000000001,-83.20000000000437,-259.2000000000007,-27.68170500842814,28.426447429868062,-42.24000000000089,30.72000000000037
3,flex,42320.4,30221.4,278.34482211802356,579.244197208668,250.88000000000028,536.3199999999997,131.20000000000437,307.2000000000007,-5.969370282182183,-135.25210089233565,16.640000000000867,-113.92000000000041
3,flex,42352.4,30259.8,279.4463096907367,554.7548647826698,254.71999999999971,490.2400000000001,32.0,38.39999999999782,1.101487572713154,-24.489332425998214,3.839999999999435,-46.079999999999586
3,flex,42310.8,30231.0,344.7099650424416,541.6419481539442,304.6399999999994,467.2,-41.599999999998545,-28.799999999999272,65.26365535170487,-13.112916628725543,49.9199999999997,-23.040000000000134
3,flex,42275.6,30234.2,310.6802858245266,545.5413458208409,276.4800000000003,469.7599999999999,-35.200000000004366,3.2000000000007276,-34.029679217914975,3.899397666896675,-28.159999999999116,2.5599999999998886
3,flex,42282.0,30467.8,307.7661449867415,297.16958121602835,268.8,215.04000000000013,6.400000000001455,233.59999999999854,-2.914140837785112,-248.37176460481254,-7.680000000000291,-254.71999999999974
3,flex,42198.8,30115.8,272.9207943703668,724.8123619255111,220.1600000000006,586.2400000000001,-83.19999999999709,-352.0,-34.845350616374674,427.6427807094828,-48.63999999999942,371.2
3,flex,42224.4,30272.6,297.89232954192386,761.2772425339411,250.88000000000028,592.6400000000009,25.599999999998545,156.79999999999927,24.971535171557036,36.46488060843001,30.719999999999686,6.400000000000773
3,flex,42304.4,30154.2,191.0911824232457,774.5983217126551,186.88000000000028,674.5599999999998,80.0,-118.39999999999782,-106.80114711867816,13.321079178713944,-64.0,81.91999999999894
3,flex,42259.6,30003.8,158.26256664227418,682.0880881529056,133.11999999999972,554.2400000000001,-44.80000000000291,-150.40000000000146,-32.82861578097152,-92.51023355974951,-53.76000000000056,-120.31999999999971
3,flex,42173.2,30055.0,270.4709965970126,724.7134606173835,202.2399999999994,595.2,-86.40000000000146,51.20000000000073,112.20842995473839,42.62537246447789,69.11999999999969,40.95999999999992
3,flex,42256.4,30448.6,312.4878237625692,387.1338786519528,261.1199999999997,366.08000000000027,83.20000000000437,393.59999999999854,42.016827165556606,-337.5795819654307,58.88000000000031,-229.11999999999978
3,flex,42211.6,30359.0,281.0904480770426,355.4737683712032,225.28000000000029,313.6,-44.80000000000291,-89.59999999999854,-31.397375685526583,-31.660110280749564,-35.839999999999435,-52.480000000000246
3,flex,42304.4,30464.6,315.9098605614612,243.8307609799412,235.5199999999997,229.11999999999972,92.80000000000291,105.59999999999854,34.81941248441859,-111.64300739126202,10.239999999999412,-84.4800000000003
3,flex,42269.2,30477.4,324.35437410373993,228.21183141955302,277.76000000000056,218.88000000000028,-35.200000000004366,12.80000000000291,8.444513542278742,-15.618929560388182,42.24000000000086,-10.23999999999944
3,flex,42374.8,30253.4,185.04745337265348,365.78113674698176,168.96000000000058,267.5199999999997,105.60000000000582,-224.0,-139.30692073108645,137.56930532742874,-108.79999999999998,48.63999999999942
3,flex,42288.4,29959.0,174.27518469338705,427.5324549083964,142.0800000000003,403.2,-86.40000000000146,-294.40000000000146,-10.772268679266432,61.751318161414645,-26.88000000000028,135.6800000000003
3,flex,42211.6,29952.6,218.11703280569782,422.42424172877287,171.5199999999997,398.08000000000027,-76.80000000000291,-6.400000000001455,43.84184811231077,-5.108213179623533,29.4399999999994,-5.11999999999972
3,flex,42099.6,29991.0,101.4960097740656,464.27578011350107,84.48000000000029,428.8,-112.0,38.400000000001455,-116.62102303163222,41.8515383847282,-87.03999999999941,30.719999999999743
3,flex,42157.2,30035.8,161.71876823756904,493.6097243775309,138.2399999999994,464.64000000000016,57.599999999998545,44.79999999999927,60.22275846350344,29.33394426402981,53.759999999999124,35.840000000000146
3,flex,42166.8,30135.0,168.23602467859456,448.4569098587108,149.7600000000006,345.6,9.60000000000582,99.20000000000073,6.517256441025523,-45.152814518820094,11.520000000001176,-119.04000000000013
3,flex,42230.8,30336.6,202.48693784923833,147.54741610753317,189.43999999999943,126.71999999999971,64.0,201.59999999999854,34.25091317064377,-300.9094937511776,39.67999999999884,-218.8800000000003
3,flex,42349.2,30173.4,172.1469140013297,383.5463987575873,143.36000000000058,305.91999999999973,118.39999999999418,-163.1999999999971,-30.34002384790864,235.99898265005416,-46.07999999999885,179.20000000000002
3,flex,42413.2,30083.8,81.83495585797408,333.9978443045134,67.83999999999942,248.32000000000045,64.0,-89.60000000000218,-90.31195814335561,-49.548554453073905,-75.52000000000116,-57.599999999999284
3,flex,42387.6,29898.2,97.37679395014777,342.77362792372236,88.31999999999971,328.95999999999987,-25.599999999998545,-185.59999999999854,15.541838092173691,8.775783619208937,20.480000000000288,80.63999999999942
3,flex,42358.8,30039.0,134.01850618403313,508.89055797884856,112.63999999999942,441.6,-28.799999999995634,140.79999999999927,36.64171223388536,166.1169300551262,24.31999999999971,112.64000000000016
3,flex,42384.4,30109.4,160.19188493746742,561.1051951281886,142.0800000000003,500.4800000000003,25.599999999998545,70.40000000000146,26.173378753434292,52.214637149340035,29.44000000000088,58.88000000000028
3,flex,42346.0,30269.4,140.5816488736979,458.6840306789006,102.4,372.4800000000003,-38.400000000001455,160.0,-19.61023606376952,-102.42116444928797,-39.68000000000029,-128.0
3,flex,42237.2,30195.8,252.25257184094662,506.51057244645756,200.96000000000058,458.2400000000001,-108.80000000000291,-73.60000000000218,111.67092296724871,47.82654176755693,98.56000000000057,85.75999999999982
3,flex,42134.8,30381.4,310.4824632727187,374.3589721109749,272.6399999999994,305.91999999999973,-102.39999999999418,185.60000000000218,58.229891431772074,-132.15160033548267,71.67999999999884,-152.3200000000004
3,flex,42157.2,30295.0,315.06596134844466,306.09802351534387,290.56000000000057,236.8,22.39999999999418,-86.40000000000146,4.58349807572597,-68.26094859563102,17.920000000001153,-69.11999999999972
3,flex,42147.6,30250.2,302.3280337646668,264.92444205833283,282.8800000000003,206.07999999999956,-9.599999999998545,-44.79999999999927,-12.737927583777832,-41.17358145701104,-7.680000000000291,-30.720000000000454
3,flex,42109.2,30272.6,286.4670312621219,269.7506997213843,252.1600000000006,215.04000000000087,-38.400000000001455,22.399999999997817,-15.86100250254492,4.826257663051479,-30.719999999999686,8.960000000001315
3,flex,42246.8,30397.4,278.67572553031493,29.675579183336684,227.8399999999994,26.88000000000029,137.60000000000582,124.80000000000291,-7.791305731806972,-240.07512053804763,-24.320000000001187,-188.1600000000006
3,flex,42326.8,30346.2,164.2320309800966,84.30041518250536,156.1600000000006,65.27999999999956,80.0,-51.20000000000073,-114.44369455021834,54.62483599916868,-71.67999999999881,38.39999999999927
3,flex,42240.4,30218.2,259.49612713874853,247.33329739440757,225.28000000000029,200.95999999999987,-86.40000000000146,-128.0,95.26409615865194,163.0328822119022,69.11999999999969,135.6800000000003
3,flex,42195.6,30147.8,220.684027514583,228.39124326484583,171.5199999999997,189.44000000000014,-44.80000000000291,-70.40000000000146,-38.81209962416554,-18.94205412956174,-53.76000000000059,-11.519999999999726
3,flex,42266.0,30023.0,250.33737235968647,240.31978695068753,211.2,217.6,70.40000000000146,-124.79999999999927,29.653344845103476,11.928543685841703,39.68000000000029,28.159999999999854
3,flex,42240.4,30243.8,230.22215358216405,633.3575293624523,190.71999999999971,487.67999999999955,-25.599999999998545,220.79999999999927,-20.115218777522415,393.0377424117647,-20.480000000000274,270.0799999999996
3,flex,42234.0,30211.8,232.5235471947899,639.6318941391511,198.4,500.47999999999956,-6.400000000001455,-32.0,2.3013936126258443,6.274364776698803,7.680000000000291,12.800000000000011
3,flex,42294.8,29949.2,142.1751033048756,962.7960116244597,125.43999999999942,683.7599999999999,60.80000000000291,-262.59999999999854,-90.34844388991431,323.16411748530857,-72.96000000000059,183.2800000000003
3,flex,42365.2,29939.6,206.74080390728116,961.7724470996294,181.7600000000006,676.0800000000003,70.39999999999418,-9.600000000002183,64.56570060240557,-1.023564524830249,56.32000000000117,-7.679999999999609
